{
  "AcquisitionMatrixPE": 120,
  "AcquisitionNumber": 1,
  "BandwidthPerPixelPhaseEncode": 13.889,
  "BaseResolution": 120,
  "BodyPartExamined": "BRAIN",
  "ConsistencyInfo": "N4_VE11C_LATEST_20160120",
  "ConversionSoftware": "dcm2niix",
  "ConversionSoftwareVersion": "v1.0.20171215 (OpenJPEG build) GCC6.3.0",
  "DerivedVendorReportedEchoSpacing": 0.000599995,
  "DeviceSerialNumber": "66112",
  "DwellTime": 2e-06,
  "EchoTime": 0.103,
  "EchoTrainLength": 120,
  "EffectiveEchoSpacing": 0.000599995,
  "FlipAngle": 90,
  "ImageOrientationPatientDICOM": [
    0.996363,
    -0.0139894,
    0.0840548,
    0.0142607,
    0.999895,
    -0.0026275
  ],
  "ImageType": [
    "ORIGINAL",
    "PRIMARY",
    "DIFFUSION",
    "NONE",
    "ND",
    "NORM",
    "MOSAIC"
  ],
  "InPlanePhaseEncodingDirectionDICOM": "COL",
  "InstitutionAddress": "Maynard_3_Hanover_NH_US_03755",
  "InstitutionName": "Dartmouth_College_-_PBS",
  "InstitutionalDepartmentName": "Department",
  "MRAcquisitionType": "2D",
  "MagneticFieldStrength": 3,
  "Manufacturer": "Siemens",
  "ManufacturersModelName": "Prisma",
  "Modality": "MR",
  "MultibandAccelerationFactor": 4,
  "PatientPosition": "HFS",
  "PercentPhaseFOV": 100,
  "PhaseEncodingDirection": "j-",
  "PhaseEncodingSteps": 120,
  "PhaseResolution": 1,
  "PixelBandwidth": 2085,
  "ProcedureStepDescription": "Gobbini_Matteo_1038_hyperface",
  "ProtocolName": "dwi_acq-2.0mmXhardi96Xsms4X11b0",
  "PulseSequenceDetails": "%SiemensSeq%_ep2d_diff",
  "ReceiveCoilActiveElements": "HEA;HEP",
  "ReceiveCoilName": "Head_32",
  "ReconMatrixPE": 120,
  "RepetitionTime": 2.6,
  "SAR": 0.288634,
  "ScanOptions": "FS",
  "ScanningSequence": "EP",
  "SequenceName": "_ep_b0",
  "SequenceVariant": "SK_SP",
  "SeriesDescription": "dwi_acq-2.0mmXhardi96Xsms4X11b0",
  "SeriesNumber": 66,
  "ShimSetting": [
    4162,
    -7693,
    -7349,
    714,
    -35,
    -97,
    -3,
    23
  ],
  "SliceThickness": 2,
  "SliceTiming": [
    1.935,
    0,
    1.29,
    0.16,
    1.45,
    0.3225,
    1.6125,
    0.4825,
    1.7725,
    0.805,
    2.095,
    0.9675,
    2.2575,
    1.1275,
    2.4175,
    0.645,
    1.935,
    0,
    1.29,
    0.16,
    1.45,
    0.3225,
    1.6125,
    0.4825,
    1.7725,
    0.805,
    2.095,
    0.9675,
    2.2575,
    1.1275,
    2.4175,
    0.645,
    1.935,
    0,
    1.29,
    0.16,
    1.45,
    0.3225,
    1.6125,
    0.4825,
    1.7725,
    0.805,
    2.095,
    0.9675,
    2.2575,
    1.1275,
    2.4175,
    0.645,
    1.935,
    0,
    1.29,
    0.16,
    1.45,
    0.3225,
    1.6125,
    0.4825,
    1.7725,
    0.805,
    2.095,
    0.9675,
    2.2575,
    1.1275,
    2.4175,
    0.645
  ],
  "SoftwareVersions": "syngo_MR_E11",
  "SpacingBetweenSlices": 2,
  "StationName": "AWP66112",
  "TotalReadoutTime": 0.0713994,
  "TxRefAmp": 229.552,
  "time": {
    "samples": {
      "AcquisitionNumber": [
        1,
        2,
        3,
        4,
        5,
        6,
        7,
        8,
        9,
        10,
        11,
        12,
        13,
        14,
        15,
        16,
        17,
        18,
        19,
        20,
        21,
        22,
        23,
        24,
        25,
        26,
        27,
        28,
        29,
        30,
        31,
        32,
        33,
        34,
        35,
        36,
        37,
        38,
        39,
        40,
        41,
        42,
        43,
        44,
        45,
        46,
        47,
        48,
        49,
        50,
        51,
        52,
        53,
        54,
        55,
        56,
        57,
        58,
        59,
        60,
        61,
        62,
        63,
        64,
        65,
        66,
        67,
        68,
        69,
        70,
        71,
        72,
        73,
        74,
        75,
        76,
        77,
        78,
        79,
        80,
        81,
        82,
        83,
        84,
        85,
        86,
        87,
        88,
        89,
        90,
        91,
        92,
        93,
        94,
        95,
        96,
        97,
        98,
        99,
        100,
        101,
        102,
        103,
        104,
        105,
        106,
        107
      ],
      "AcquisitionTime": [
        "110639.502500",
        "110642.102500",
        "110644.702500",
        "110647.302500",
        "110649.902500",
        "110652.502500",
        "110655.102500",
        "110657.702500",
        "110700.302500",
        "110702.902500",
        "110705.502500",
        "110708.102500",
        "110710.702500",
        "110713.302500",
        "110715.902500",
        "110718.502500",
        "110721.102500",
        "110723.702500",
        "110726.302500",
        "110728.902500",
        "110731.502500",
        "110734.102500",
        "110736.702500",
        "110739.302500",
        "110741.902500",
        "110744.502500",
        "110747.102500",
        "110749.702500",
        "110752.302500",
        "110754.902500",
        "110757.502500",
        "110800.102500",
        "110802.702500",
        "110805.302500",
        "110807.902500",
        "110810.502500",
        "110813.102500",
        "110815.702500",
        "110818.302500",
        "110820.902500",
        "110823.502500",
        "110826.102500",
        "110828.702500",
        "110831.302500",
        "110833.902500",
        "110836.502500",
        "110839.102500",
        "110841.702500",
        "110844.302500",
        "110846.902500",
        "110849.502500",
        "110852.102500",
        "110854.702500",
        "110857.302500",
        "110859.902500",
        "110902.502500",
        "110905.102500",
        "110907.702500",
        "110910.302500",
        "110912.902500",
        "110915.502500",
        "110918.102500",
        "110920.702500",
        "110923.302500",
        "110925.902500",
        "110928.502500",
        "110931.102500",
        "110933.702500",
        "110936.302500",
        "110938.902500",
        "110941.502500",
        "110944.102500",
        "110946.702500",
        "110949.302500",
        "110951.902500",
        "110954.502500",
        "110957.102500",
        "110959.702500",
        "111002.302500",
        "111004.902500",
        "111007.502500",
        "111010.102500",
        "111012.702500",
        "111015.302500",
        "111017.902500",
        "111020.502500",
        "111023.102500",
        "111025.702500",
        "111028.302500",
        "111030.902500",
        "111033.502500",
        "111036.102500",
        "111038.702500",
        "111041.302500",
        "111043.902500",
        "111046.502500",
        "111049.102500",
        "111051.702500",
        "111054.302500",
        "111056.902500",
        "111059.502500",
        "111102.102500",
        "111104.702500",
        "111107.302500",
        "111109.902500",
        "111112.502500",
        "111115.102500"
      ],
      "ContentTime": [
        "110747.459000",
        "110747.462000",
        "110747.472000",
        "110747.476000",
        "110747.479000",
        "110747.482000",
        "110747.485000",
        "110747.488000",
        "110747.491000",
        "110747.494000",
        "110747.503000",
        "110747.506000",
        "110747.509000",
        "110747.513000",
        "110747.516000",
        "110747.519000",
        "110747.522000",
        "110747.525000",
        "110747.528000",
        "110747.532000",
        "110747.535000",
        "110747.538000",
        "110747.541000",
        "110747.544000",
        "110747.547000",
        "110747.550000",
        "110847.455000",
        "110847.458000",
        "110847.462000",
        "110847.465000",
        "110847.468000",
        "110847.478000",
        "110847.481000",
        "110847.484000",
        "110847.487000",
        "110847.490000",
        "110847.493000",
        "110847.497000",
        "110847.500000",
        "110847.503000",
        "110847.506000",
        "110847.509000",
        "110847.512000",
        "110847.516000",
        "110847.519000",
        "110847.522000",
        "110847.525000",
        "110847.528000",
        "110847.531000",
        "110947.454000",
        "110947.458000",
        "110947.461000",
        "110947.464000",
        "110947.467000",
        "110947.470000",
        "110947.473000",
        "110947.477000",
        "110947.480000",
        "110947.483000",
        "110947.486000",
        "110947.489000",
        "110947.492000",
        "110947.496000",
        "110947.499000",
        "110947.506000",
        "110947.509000",
        "110947.512000",
        "110947.515000",
        "110947.519000",
        "110947.522000",
        "110947.525000",
        "110947.528000",
        "111047.454000",
        "111047.458000",
        "111047.461000",
        "111047.464000",
        "111047.467000",
        "111047.470000",
        "111047.473000",
        "111047.477000",
        "111047.480000",
        "111047.483000",
        "111047.486000",
        "111047.489000",
        "111047.493000",
        "111047.496000",
        "111047.499000",
        "111047.502000",
        "111047.505000",
        "111047.508000",
        "111047.512000",
        "111047.515000",
        "111047.518000",
        "111047.521000",
        "111047.524000",
        "111116.398000",
        "111116.401000",
        "111116.404000",
        "111116.407000",
        "111116.410000",
        "111116.414000",
        "111116.417000",
        "111116.420000",
        "111116.423000",
        "111116.426000",
        "111116.430000",
        "111116.433000"
      ],
      "InstanceCreationTime": [
        "110747.459000",
        "110747.462000",
        "110747.472000",
        "110747.476000",
        "110747.479000",
        "110747.482000",
        "110747.485000",
        "110747.488000",
        "110747.491000",
        "110747.494000",
        "110747.503000",
        "110747.506000",
        "110747.509000",
        "110747.513000",
        "110747.516000",
        "110747.519000",
        "110747.522000",
        "110747.525000",
        "110747.528000",
        "110747.532000",
        "110747.535000",
        "110747.538000",
        "110747.541000",
        "110747.544000",
        "110747.547000",
        "110747.550000",
        "110847.455000",
        "110847.458000",
        "110847.462000",
        "110847.465000",
        "110847.468000",
        "110847.478000",
        "110847.481000",
        "110847.484000",
        "110847.487000",
        "110847.490000",
        "110847.493000",
        "110847.497000",
        "110847.500000",
        "110847.503000",
        "110847.506000",
        "110847.509000",
        "110847.512000",
        "110847.516000",
        "110847.519000",
        "110847.522000",
        "110847.525000",
        "110847.528000",
        "110847.531000",
        "110947.454000",
        "110947.458000",
        "110947.461000",
        "110947.464000",
        "110947.467000",
        "110947.470000",
        "110947.473000",
        "110947.477000",
        "110947.480000",
        "110947.483000",
        "110947.486000",
        "110947.489000",
        "110947.492000",
        "110947.496000",
        "110947.499000",
        "110947.506000",
        "110947.509000",
        "110947.512000",
        "110947.515000",
        "110947.519000",
        "110947.522000",
        "110947.525000",
        "110947.528000",
        "111047.454000",
        "111047.458000",
        "111047.461000",
        "111047.464000",
        "111047.467000",
        "111047.470000",
        "111047.473000",
        "111047.477000",
        "111047.480000",
        "111047.483000",
        "111047.486000",
        "111047.489000",
        "111047.493000",
        "111047.496000",
        "111047.499000",
        "111047.502000",
        "111047.505000",
        "111047.508000",
        "111047.512000",
        "111047.515000",
        "111047.518000",
        "111047.521000",
        "111047.524000",
        "111116.398000",
        "111116.401000",
        "111116.404000",
        "111116.407000",
        "111116.410000",
        "111116.414000",
        "111116.417000",
        "111116.420000",
        "111116.423000",
        "111116.426000",
        "111116.430000",
        "111116.433000"
      ],
      "InstanceNumber": [
        1,
        2,
        3,
        4,
        5,
        6,
        7,
        8,
        9,
        10,
        11,
        12,
        13,
        14,
        15,
        16,
        17,
        18,
        19,
        20,
        21,
        22,
        23,
        24,
        25,
        26,
        27,
        28,
        29,
        30,
        31,
        32,
        33,
        34,
        35,
        36,
        37,
        38,
        39,
        40,
        41,
        42,
        43,
        44,
        45,
        46,
        47,
        48,
        49,
        50,
        51,
        52,
        53,
        54,
        55,
        56,
        57,
        58,
        59,
        60,
        61,
        62,
        63,
        64,
        65,
        66,
        67,
        68,
        69,
        70,
        71,
        72,
        73,
        74,
        75,
        76,
        77,
        78,
        79,
        80,
        81,
        82,
        83,
        84,
        85,
        86,
        87,
        88,
        89,
        90,
        91,
        92,
        93,
        94,
        95,
        96,
        97,
        98,
        99,
        100,
        101,
        102,
        103,
        104,
        105,
        106,
        107
      ],
      "LargestImagePixelValue": [
        2505,
        2354,
        406,
        376,
        435,
        440,
        407,
        429,
        475,
        409,
        438,
        2327,
        429,
        479,
        409,
        441,
        458,
        403,
        407,
        418,
        400,
        443,
        2472,
        434,
        438,
        465,
        413,
        496,
        420,
        449,
        437,
        434,
        405,
        2146,
        418,
        373,
        400,
        472,
        433,
        459,
        471,
        414,
        473,
        393,
        2373,
        405,
        435,
        465,
        416,
        370,
        426,
        473,
        429,
        378,
        408,
        2248,
        436,
        372,
        393,
        406,
        449,
        371,
        365,
        394,
        394,
        376,
        2661,
        418,
        464,
        424,
        407,
        422,
        433,
        413,
        394,
        437,
        390,
        2167,
        388,
        404,
        465,
        374,
        421,
        395,
        426,
        409,
        420,
        2382,
        386,
        407,
        448,
        480,
        446,
        398,
        417,
        402,
        414,
        2229,
        443,
        389,
        392,
        409,
        400,
        407,
        397,
        431,
        393
      ],
      "SequenceName": [
        "*ep_b0",
        "*ep_b0",
        "*ep_b1000#2",
        "*ep_b1000#3",
        "*ep_b1000#4",
        "*ep_b1000#5",
        "*ep_b1000#6",
        "*ep_b1000#7",
        "*ep_b1000#8",
        "*ep_b1000#9",
        "*ep_b1000#10",
        "*ep_b0",
        "*ep_b1000#12",
        "*ep_b1000#13",
        "*ep_b1000#14",
        "*ep_b1000#15",
        "*ep_b1000#16",
        "*ep_b1000#17",
        "*ep_b1000#18",
        "*ep_b1000#19",
        "*ep_b1000#20",
        "*ep_b1000#21",
        "*ep_b0",
        "*ep_b1000#23",
        "*ep_b1000#24",
        "*ep_b1000#25",
        "*ep_b1000#26",
        "*ep_b1000#27",
        "*ep_b1000#28",
        "*ep_b1000#29",
        "*ep_b1000#30",
        "*ep_b1000#31",
        "*ep_b1000#32",
        "*ep_b0",
        "*ep_b1000#34",
        "*ep_b1000#35",
        "*ep_b1000#36",
        "*ep_b1000#37",
        "*ep_b1000#38",
        "*ep_b1000#39",
        "*ep_b1000#40",
        "*ep_b1000#41",
        "*ep_b1000#42",
        "*ep_b1000#43",
        "*ep_b0",
        "*ep_b1000#45",
        "*ep_b1000#46",
        "*ep_b1000#47",
        "*ep_b1000#48",
        "*ep_b1000#49",
        "*ep_b1000#50",
        "*ep_b1000#51",
        "*ep_b1000#52",
        "*ep_b1000#53",
        "*ep_b1000#54",
        "*ep_b0",
        "*ep_b1000#56",
        "*ep_b1000#57",
        "*ep_b1000#58",
        "*ep_b1000#59",
        "*ep_b1000#60",
        "*ep_b1000#61",
        "*ep_b1000#62",
        "*ep_b1000#63",
        "*ep_b1000#64",
        "*ep_b1000#65",
        "*ep_b0",
        "*ep_b1000#67",
        "*ep_b1000#68",
        "*ep_b1000#69",
        "*ep_b1000#70",
        "*ep_b1000#71",
        "*ep_b1000#72",
        "*ep_b1000#73",
        "*ep_b1000#74",
        "*ep_b1000#75",
        "*ep_b1000#76",
        "*ep_b0",
        "*ep_b1000#78",
        "*ep_b1000#79",
        "*ep_b1000#80",
        "*ep_b1000#81",
        "*ep_b1000#82",
        "*ep_b1000#83",
        "*ep_b1000#84",
        "*ep_b1000#85",
        "*ep_b1000#86",
        "*ep_b0",
        "*ep_b1000#88",
        "*ep_b1000#89",
        "*ep_b1000#90",
        "*ep_b1000#91",
        "*ep_b1000#92",
        "*ep_b1000#93",
        "*ep_b1000#94",
        "*ep_b1000#95",
        "*ep_b1000#96",
        "*ep_b0",
        "*ep_b1000#98",
        "*ep_b1000#99",
        "*ep_b1000#100",
        "*ep_b1000#101",
        "*ep_b1000#102",
        "*ep_b1000#103",
        "*ep_b1000#104",
        "*ep_b1000#105",
        "*ep_b1000#106"
      ],
      "WindowCenter": [
        263,
        253,
        93,
        96,
        94,
        95,
        94,
        93,
        96,
        91,
        95,
        249,
        95,
        93,
        93,
        94,
        95,
        92,
        94,
        96,
        93,
        94,
        258,
        94,
        96,
        94,
        93,
        96,
        93,
        95,
        93,
        94,
        96,
        239,
        94,
        94,
        92,
        96,
        94,
        95,
        94,
        94,
        94,
        96,
        251,
        92,
        94,
        96,
        94,
        94,
        93,
        94,
        94,
        94,
        94,
        245,
        96,
        92,
        94,
        93,
        96,
        94,
        93,
        93,
        93,
        93,
        268,
        94,
        96,
        94,
        93,
        93,
        94,
        95,
        93,
        95,
        93,
        242,
        95,
        94,
        95,
        93,
        95,
        93,
        95,
        94,
        93,
        252,
        93,
        94,
        95,
        95,
        94,
        92,
        96,
        94,
        94,
        243,
        94,
        93,
        93,
        94,
        94,
        95,
        93,
        95,
        92
      ],
      "WindowWidth": [
        590,
        575,
        238,
        245,
        241,
        243,
        241,
        239,
        245,
        235,
        243,
        570,
        243,
        239,
        239,
        242,
        243,
        236,
        242,
        245,
        239,
        241,
        581,
        241,
        245,
        241,
        239,
        244,
        239,
        243,
        238,
        241,
        246,
        554,
        241,
        241,
        236,
        245,
        240,
        243,
        242,
        241,
        240,
        245,
        571,
        237,
        241,
        245,
        241,
        241,
        239,
        241,
        241,
        241,
        241,
        564,
        244,
        237,
        241,
        239,
        245,
        241,
        240,
        239,
        239,
        239,
        596,
        241,
        245,
        241,
        239,
        240,
        240,
        243,
        239,
        243,
        239,
        560,
        243,
        241,
        243,
        239,
        242,
        239,
        242,
        241,
        239,
        572,
        240,
        242,
        243,
        242,
        241,
        237,
        245,
        241,
        241,
        560,
        241,
        239,
        239,
        241,
        241,
        243,
        240,
        243,
        237
      ]
    },
    "slices": {}
  },
  "CoilCombinationMethod": "Adaptive Combine",
  "NonlinearGradientCorrection": false,
  "PulseSequenceType": "Spin Echo EPI",
  "B0FieldSource": "pepolar_ses-1"
}
