{
  "AcquisitionMatrixPE": 96,
  "AcquisitionNumber": 1,
  "BandwidthPerPixelPhaseEncode": 18.939,
  "BaseResolution": 96,
  "BodyPartExamined": "BRAIN",
  "ConsistencyInfo": "N4_VE11C_LATEST_20160120",
  "ConversionSoftware": "dcm2niix",
  "ConversionSoftwareVersion": "v1.0.20171215 (OpenJPEG build) GCC6.3.0",
  "DerivedVendorReportedEchoSpacing": 0.000550011,
  "DeviceSerialNumber": "66112",
  "DwellTime": 2.2e-06,
  "EchoTime": 0.033,
  "EchoTrainLength": 96,
  "EffectiveEchoSpacing": 0.000550011,
  "FlipAngle": 59,
  "ImageOrientationPatientDICOM": [
    0.998737,
    0.0497006,
    0.0073862,
    -0.0495453,
    0.998574,
    -0.0198955
  ],
  "ImageType": [
    "ORIGINAL",
    "PRIMARY",
    "FMRI",
    "NONE",
    "ND",
    "NORM",
    "MOSAIC"
  ],
  "InPlanePhaseEncodingDirectionDICOM": "COL",
  "InstitutionAddress": "Maynard_3_Hanover_NH_US_03755",
  "InstitutionName": "Dartmouth_College_-_PBS",
  "InstitutionalDepartmentName": "Department",
  "MRAcquisitionType": "2D",
  "MagneticFieldStrength": 3,
  "Manufacturer": "Siemens",
  "ManufacturersModelName": "Prisma",
  "Modality": "MR",
  "MultibandAccelerationFactor": 4,
  "PatientPosition": "HFS",
  "PercentPhaseFOV": 100,
  "PhaseEncodingDirection": "j-",
  "PhaseEncodingSteps": 96,
  "PhaseResolution": 1,
  "PixelBandwidth": 2365,
  "ProcedureStepDescription": "Gobbini_Matteo_1038_hyperface",
  "ProtocolName": "func_run-04_task-visualmemory",
  "PulseSequenceDetails": "%SiemensSeq%_ep2d_bold",
  "ReceiveCoilActiveElements": "HEA;HEP",
  "ReceiveCoilName": "Head_32",
  "ReconMatrixPE": 96,
  "RepetitionTime": 1,
  "SAR": 0.0368696,
  "ScanOptions": "FS",
  "ScanningSequence": "EP",
  "SequenceName": "_epfid2d1_96",
  "SequenceVariant": "SK",
  "SeriesDescription": "func_run-04_task-visualmemory",
  "SeriesNumber": 29,
  "ShimSetting": [
    4118,
    -7732,
    -7329,
    675,
    85,
    95,
    123,
    35
  ],
  "SliceThickness": 2.5,
  "SliceTiming": [
    0.735,
    0,
    0.49,
    0.0825,
    0.5725,
    0.1625,
    0.6525,
    0.3275,
    0.8175,
    0.4075,
    0.8975,
    0.245,
    0.735,
    0,
    0.49,
    0.0825,
    0.5725,
    0.1625,
    0.6525,
    0.3275,
    0.8175,
    0.4075,
    0.8975,
    0.245,
    0.735,
    0,
    0.49,
    0.0825,
    0.5725,
    0.1625,
    0.6525,
    0.3275,
    0.8175,
    0.4075,
    0.8975,
    0.245,
    0.735,
    0,
    0.49,
    0.0825,
    0.5725,
    0.1625,
    0.6525,
    0.3275,
    0.8175,
    0.4075,
    0.8975,
    0.245
  ],
  "SoftwareVersions": "syngo_MR_E11",
  "SpacingBetweenSlices": 2.5,
  "StationName": "AWP66112",
  "TotalReadoutTime": 0.0522511,
  "TxRefAmp": 232.668,
  "time": {
    "samples": {
      "AcquisitionNumber": [
        1,
        2,
        3,
        4,
        5,
        6,
        7,
        8,
        9,
        10,
        11,
        12,
        13,
        14,
        15,
        16,
        17,
        18,
        19,
        20,
        21,
        22,
        23,
        24,
        25,
        26,
        27,
        28,
        29,
        30,
        31,
        32,
        33,
        34,
        35,
        36,
        37,
        38,
        39,
        40,
        41,
        42,
        43,
        44,
        45,
        46,
        47,
        48,
        49,
        50,
        51,
        52,
        53,
        54,
        55,
        56,
        57,
        58,
        59,
        60,
        61,
        62,
        63,
        64,
        65,
        66,
        67,
        68,
        69,
        70,
        71,
        72,
        73,
        74,
        75,
        76,
        77,
        78,
        79,
        80,
        81,
        82,
        83,
        84,
        85,
        86,
        87,
        88,
        89,
        90,
        91,
        92,
        93,
        94,
        95,
        96,
        97,
        98,
        99,
        100,
        101,
        102,
        103,
        104,
        105,
        106,
        107,
        108,
        109,
        110,
        111,
        112,
        113,
        114,
        115,
        116,
        117,
        118,
        119,
        120,
        121,
        122,
        123,
        124,
        125,
        126,
        127,
        128,
        129,
        130,
        131,
        132,
        133,
        134,
        135,
        136,
        137,
        138,
        139,
        140,
        141,
        142,
        143,
        144,
        145,
        146,
        147,
        148,
        149,
        150,
        151,
        152,
        153,
        154,
        155,
        156,
        157,
        158,
        159,
        160,
        161,
        162,
        163,
        164,
        165,
        166,
        167,
        168,
        169,
        170,
        171,
        172,
        173,
        174,
        175,
        176,
        177,
        178,
        179,
        180,
        181,
        182,
        183,
        184,
        185,
        186,
        187,
        188,
        189,
        190,
        191,
        192,
        193,
        194,
        195,
        196,
        197,
        198,
        199,
        200,
        201,
        202,
        203,
        204,
        205,
        206,
        207,
        208,
        209,
        210,
        211,
        212,
        213,
        214,
        215,
        216,
        217,
        218,
        219,
        220,
        221,
        222,
        223,
        224,
        225,
        226,
        227,
        228,
        229,
        230,
        231,
        232,
        233,
        234,
        235,
        236,
        237,
        238,
        239,
        240,
        241,
        242,
        243,
        244,
        245,
        246,
        247,
        248,
        249,
        250,
        251,
        252,
        253,
        254,
        255,
        256,
        257,
        258,
        259,
        260,
        261,
        262,
        263,
        264,
        265,
        266,
        267,
        268,
        269,
        270,
        271,
        272,
        273,
        274,
        275,
        276,
        277,
        278,
        279,
        280,
        281,
        282,
        283,
        284,
        285,
        286,
        287,
        288
      ],
      "AcquisitionTime": [
        "094221.350000",
        "094222.350000",
        "094223.350000",
        "094224.350000",
        "094225.350000",
        "094226.350000",
        "094227.350000",
        "094228.350000",
        "094229.350000",
        "094230.350000",
        "094231.350000",
        "094232.350000",
        "094233.350000",
        "094234.350000",
        "094235.350000",
        "094236.350000",
        "094237.350000",
        "094238.350000",
        "094239.350000",
        "094240.350000",
        "094241.350000",
        "094242.350000",
        "094243.350000",
        "094244.350000",
        "094245.350000",
        "094246.350000",
        "094247.350000",
        "094248.350000",
        "094249.350000",
        "094250.350000",
        "094251.350000",
        "094252.350000",
        "094253.350000",
        "094254.350000",
        "094255.350000",
        "094256.350000",
        "094257.350000",
        "094258.350000",
        "094259.350000",
        "094300.350000",
        "094301.350000",
        "094302.350000",
        "094303.350000",
        "094304.350000",
        "094305.350000",
        "094306.350000",
        "094307.350000",
        "094308.350000",
        "094309.350000",
        "094310.350000",
        "094311.350000",
        "094312.350000",
        "094313.350000",
        "094314.350000",
        "094315.350000",
        "094316.350000",
        "094317.350000",
        "094318.350000",
        "094319.350000",
        "094320.350000",
        "094321.350000",
        "094322.350000",
        "094323.350000",
        "094324.350000",
        "094325.350000",
        "094326.350000",
        "094327.350000",
        "094328.350000",
        "094329.350000",
        "094330.350000",
        "094331.350000",
        "094332.350000",
        "094333.350000",
        "094334.350000",
        "094335.350000",
        "094336.350000",
        "094337.350000",
        "094338.350000",
        "094339.350000",
        "094340.350000",
        "094341.350000",
        "094342.350000",
        "094343.350000",
        "094344.350000",
        "094345.350000",
        "094346.350000",
        "094347.350000",
        "094348.350000",
        "094349.350000",
        "094350.350000",
        "094351.350000",
        "094352.350000",
        "094353.350000",
        "094354.350000",
        "094355.350000",
        "094356.350000",
        "094357.350000",
        "094358.350000",
        "094359.350000",
        "094400.350000",
        "094401.350000",
        "094402.350000",
        "094403.350000",
        "094404.350000",
        "094405.350000",
        "094406.350000",
        "094407.350000",
        "094408.350000",
        "094409.350000",
        "094410.350000",
        "094411.350000",
        "094412.350000",
        "094413.350000",
        "094414.350000",
        "094415.350000",
        "094416.350000",
        "094417.350000",
        "094418.350000",
        "094419.350000",
        "094420.350000",
        "094421.350000",
        "094422.350000",
        "094423.350000",
        "094424.350000",
        "094425.350000",
        "094426.350000",
        "094427.350000",
        "094428.350000",
        "094429.350000",
        "094430.350000",
        "094431.350000",
        "094432.350000",
        "094433.350000",
        "094434.350000",
        "094435.350000",
        "094436.350000",
        "094437.350000",
        "094438.350000",
        "094439.350000",
        "094440.350000",
        "094441.350000",
        "094442.350000",
        "094443.350000",
        "094444.350000",
        "094445.350000",
        "094446.350000",
        "094447.350000",
        "094448.350000",
        "094449.350000",
        "094450.350000",
        "094451.350000",
        "094452.350000",
        "094453.350000",
        "094454.350000",
        "094455.350000",
        "094456.350000",
        "094457.350000",
        "094458.350000",
        "094459.350000",
        "094500.350000",
        "094501.350000",
        "094502.350000",
        "094503.350000",
        "094504.350000",
        "094505.350000",
        "094506.350000",
        "094507.350000",
        "094508.350000",
        "094509.350000",
        "094510.350000",
        "094511.350000",
        "094512.350000",
        "094513.350000",
        "094514.350000",
        "094515.350000",
        "094516.350000",
        "094517.350000",
        "094518.350000",
        "094519.350000",
        "094520.350000",
        "094521.350000",
        "094522.350000",
        "094523.350000",
        "094524.350000",
        "094525.350000",
        "094526.350000",
        "094527.350000",
        "094528.350000",
        "094529.350000",
        "094530.350000",
        "094531.350000",
        "094532.350000",
        "094533.350000",
        "094534.350000",
        "094535.350000",
        "094536.350000",
        "094537.350000",
        "094538.350000",
        "094539.350000",
        "094540.350000",
        "094541.350000",
        "094542.350000",
        "094543.350000",
        "094544.350000",
        "094545.350000",
        "094546.350000",
        "094547.350000",
        "094548.350000",
        "094549.350000",
        "094550.350000",
        "094551.350000",
        "094552.350000",
        "094553.350000",
        "094554.350000",
        "094555.350000",
        "094556.350000",
        "094557.350000",
        "094558.350000",
        "094559.350000",
        "094600.350000",
        "094601.350000",
        "094602.350000",
        "094603.350000",
        "094604.350000",
        "094605.350000",
        "094606.350000",
        "094607.350000",
        "094608.350000",
        "094609.350000",
        "094610.350000",
        "094611.350000",
        "094612.350000",
        "094613.350000",
        "094614.350000",
        "094615.350000",
        "094616.350000",
        "094617.350000",
        "094618.350000",
        "094619.350000",
        "094620.350000",
        "094621.350000",
        "094622.350000",
        "094623.350000",
        "094624.350000",
        "094625.350000",
        "094626.350000",
        "094627.350000",
        "094628.350000",
        "094629.350000",
        "094630.350000",
        "094631.350000",
        "094632.350000",
        "094633.350000",
        "094634.350000",
        "094635.350000",
        "094636.350000",
        "094637.350000",
        "094638.350000",
        "094639.350000",
        "094640.350000",
        "094641.350000",
        "094642.350000",
        "094643.350000",
        "094644.350000",
        "094645.350000",
        "094646.350000",
        "094647.350000",
        "094648.350000",
        "094649.350000",
        "094650.350000",
        "094651.350000",
        "094652.350000",
        "094653.350000",
        "094654.350000",
        "094655.350000",
        "094656.350000",
        "094657.350000",
        "094658.350000",
        "094659.350000",
        "094700.350000",
        "094701.350000",
        "094702.350000",
        "094703.350000",
        "094704.350000",
        "094705.350000",
        "094706.350000",
        "094707.350000",
        "094708.350000"
      ],
      "ContentTime": [
        "094222.564000",
        "094223.389000",
        "094224.392000",
        "094225.391000",
        "094226.404000",
        "094227.388000",
        "094228.438000",
        "094229.413000",
        "094230.399000",
        "094231.391000",
        "094232.429000",
        "094233.429000",
        "094234.406000",
        "094235.397000",
        "094236.458000",
        "094237.396000",
        "094238.420000",
        "094239.413000",
        "094240.419000",
        "094241.385000",
        "094242.381000",
        "094243.403000",
        "094244.432000",
        "094245.390000",
        "094246.445000",
        "094247.395000",
        "094248.415000",
        "094249.405000",
        "094250.394000",
        "094251.405000",
        "094252.417000",
        "094253.422000",
        "094254.386000",
        "094255.374000",
        "094256.429000",
        "094257.419000",
        "094258.415000",
        "094259.399000",
        "094300.388000",
        "094301.396000",
        "094302.458000",
        "094303.371000",
        "094304.406000",
        "094305.388000",
        "094306.384000",
        "094307.382000",
        "094308.395000",
        "094309.396000",
        "094310.401000",
        "094311.404000",
        "094312.400000",
        "094313.397000",
        "094314.405000",
        "094315.381000",
        "094316.406000",
        "094317.396000",
        "094318.429000",
        "094319.376000",
        "094320.388000",
        "094321.388000",
        "094322.409000",
        "094323.397000",
        "094324.400000",
        "094325.401000",
        "094326.374000",
        "094327.416000",
        "094328.446000",
        "094329.386000",
        "094330.409000",
        "094331.404000",
        "094332.401000",
        "094333.413000",
        "094334.416000",
        "094335.407000",
        "094336.389000",
        "094337.409000",
        "094338.408000",
        "094339.420000",
        "094340.407000",
        "094341.388000",
        "094342.386000",
        "094343.393000",
        "094344.388000",
        "094345.438000",
        "094346.393000",
        "094347.417000",
        "094348.410000",
        "094349.421000",
        "094350.402000",
        "094351.370000",
        "094352.404000",
        "094353.376000",
        "094354.383000",
        "094355.402000",
        "094356.401000",
        "094357.419000",
        "094358.396000",
        "094359.415000",
        "094400.415000",
        "094401.404000",
        "094402.399000",
        "094403.422000",
        "094404.417000",
        "094405.421000",
        "094406.439000",
        "094407.425000",
        "094408.415000",
        "094409.410000",
        "094410.413000",
        "094411.392000",
        "094412.437000",
        "094413.390000",
        "094414.406000",
        "094415.396000",
        "094416.477000",
        "094417.406000",
        "094418.391000",
        "094419.421000",
        "094420.438000",
        "094421.417000",
        "094422.395000",
        "094423.430000",
        "094424.398000",
        "094425.408000",
        "094426.428000",
        "094427.422000",
        "094428.405000",
        "094429.402000",
        "094430.405000",
        "094431.437000",
        "094432.402000",
        "094433.391000",
        "094434.401000",
        "094435.430000",
        "094436.404000",
        "094437.430000",
        "094438.424000",
        "094439.409000",
        "094440.415000",
        "094441.396000",
        "094442.439000",
        "094443.384000",
        "094444.403000",
        "094445.393000",
        "094446.392000",
        "094447.397000",
        "094448.407000",
        "094449.417000",
        "094450.416000",
        "094451.397000",
        "094452.407000",
        "094453.408000",
        "094454.449000",
        "094455.412000",
        "094456.385000",
        "094457.416000",
        "094458.401000",
        "094459.409000",
        "094500.397000",
        "094501.420000",
        "094502.377000",
        "094503.386000",
        "094504.394000",
        "094505.407000",
        "094506.380000",
        "094507.400000",
        "094508.388000",
        "094509.392000",
        "094510.396000",
        "094511.398000",
        "094512.459000",
        "094513.460000",
        "094514.392000",
        "094515.408000",
        "094516.452000",
        "094517.437000",
        "094518.399000",
        "094519.437000",
        "094520.408000",
        "094521.401000",
        "094522.399000",
        "094523.391000",
        "094524.363000",
        "094525.400000",
        "094526.412000",
        "094527.401000",
        "094528.396000",
        "094529.399000",
        "094530.362000",
        "094531.407000",
        "094532.400000",
        "094533.391000",
        "094534.394000",
        "094535.428000",
        "094536.396000",
        "094537.445000",
        "094538.402000",
        "094539.431000",
        "094540.381000",
        "094541.395000",
        "094542.438000",
        "094543.402000",
        "094544.446000",
        "094545.386000",
        "094546.414000",
        "094547.397000",
        "094548.430000",
        "094549.422000",
        "094550.401000",
        "094551.397000",
        "094552.414000",
        "094553.400000",
        "094554.446000",
        "094555.405000",
        "094556.406000",
        "094557.388000",
        "094558.370000",
        "094559.402000",
        "094600.431000",
        "094601.388000",
        "094602.407000",
        "094603.454000",
        "094604.411000",
        "094605.405000",
        "094606.379000",
        "094607.427000",
        "094608.396000",
        "094609.405000",
        "094610.413000",
        "094611.407000",
        "094612.394000",
        "094613.439000",
        "094614.415000",
        "094615.408000",
        "094616.417000",
        "094617.406000",
        "094618.388000",
        "094619.459000",
        "094620.415000",
        "094621.391000",
        "094622.396000",
        "094623.421000",
        "094624.406000",
        "094625.459000",
        "094626.421000",
        "094627.400000",
        "094628.383000",
        "094629.427000",
        "094630.430000",
        "094631.390000",
        "094632.386000",
        "094633.397000",
        "094634.411000",
        "094635.408000",
        "094636.419000",
        "094637.426000",
        "094638.426000",
        "094639.391000",
        "094640.396000",
        "094641.393000",
        "094642.382000",
        "094643.406000",
        "094644.386000",
        "094645.416000",
        "094646.408000",
        "094647.426000",
        "094648.428000",
        "094649.411000",
        "094650.401000",
        "094651.452000",
        "094652.364000",
        "094653.415000",
        "094654.421000",
        "094655.457000",
        "094656.403000",
        "094657.393000",
        "094658.385000",
        "094659.422000",
        "094700.414000",
        "094701.406000",
        "094702.391000",
        "094703.443000",
        "094704.383000",
        "094705.416000",
        "094706.404000",
        "094707.381000",
        "094708.421000",
        "094709.437000"
      ],
      "InstanceCreationTime": [
        "094222.564000",
        "094223.389000",
        "094224.392000",
        "094225.391000",
        "094226.404000",
        "094227.388000",
        "094228.438000",
        "094229.413000",
        "094230.399000",
        "094231.391000",
        "094232.429000",
        "094233.429000",
        "094234.406000",
        "094235.397000",
        "094236.458000",
        "094237.396000",
        "094238.420000",
        "094239.413000",
        "094240.419000",
        "094241.385000",
        "094242.381000",
        "094243.403000",
        "094244.432000",
        "094245.390000",
        "094246.445000",
        "094247.395000",
        "094248.415000",
        "094249.405000",
        "094250.394000",
        "094251.405000",
        "094252.417000",
        "094253.422000",
        "094254.386000",
        "094255.374000",
        "094256.429000",
        "094257.419000",
        "094258.415000",
        "094259.399000",
        "094300.388000",
        "094301.396000",
        "094302.458000",
        "094303.371000",
        "094304.406000",
        "094305.388000",
        "094306.384000",
        "094307.382000",
        "094308.395000",
        "094309.396000",
        "094310.401000",
        "094311.404000",
        "094312.400000",
        "094313.397000",
        "094314.405000",
        "094315.381000",
        "094316.406000",
        "094317.396000",
        "094318.429000",
        "094319.376000",
        "094320.388000",
        "094321.388000",
        "094322.409000",
        "094323.397000",
        "094324.400000",
        "094325.401000",
        "094326.374000",
        "094327.416000",
        "094328.446000",
        "094329.386000",
        "094330.409000",
        "094331.404000",
        "094332.401000",
        "094333.413000",
        "094334.416000",
        "094335.407000",
        "094336.389000",
        "094337.409000",
        "094338.408000",
        "094339.420000",
        "094340.407000",
        "094341.388000",
        "094342.386000",
        "094343.393000",
        "094344.388000",
        "094345.438000",
        "094346.393000",
        "094347.417000",
        "094348.410000",
        "094349.421000",
        "094350.402000",
        "094351.370000",
        "094352.404000",
        "094353.376000",
        "094354.383000",
        "094355.402000",
        "094356.401000",
        "094357.419000",
        "094358.396000",
        "094359.415000",
        "094400.415000",
        "094401.404000",
        "094402.399000",
        "094403.422000",
        "094404.417000",
        "094405.421000",
        "094406.439000",
        "094407.425000",
        "094408.415000",
        "094409.410000",
        "094410.413000",
        "094411.392000",
        "094412.437000",
        "094413.390000",
        "094414.406000",
        "094415.396000",
        "094416.477000",
        "094417.406000",
        "094418.391000",
        "094419.421000",
        "094420.438000",
        "094421.417000",
        "094422.395000",
        "094423.430000",
        "094424.398000",
        "094425.408000",
        "094426.428000",
        "094427.422000",
        "094428.405000",
        "094429.402000",
        "094430.405000",
        "094431.437000",
        "094432.402000",
        "094433.391000",
        "094434.401000",
        "094435.430000",
        "094436.404000",
        "094437.430000",
        "094438.424000",
        "094439.409000",
        "094440.415000",
        "094441.396000",
        "094442.439000",
        "094443.384000",
        "094444.403000",
        "094445.393000",
        "094446.392000",
        "094447.397000",
        "094448.407000",
        "094449.417000",
        "094450.416000",
        "094451.397000",
        "094452.407000",
        "094453.408000",
        "094454.449000",
        "094455.412000",
        "094456.385000",
        "094457.416000",
        "094458.401000",
        "094459.409000",
        "094500.397000",
        "094501.420000",
        "094502.377000",
        "094503.386000",
        "094504.394000",
        "094505.407000",
        "094506.380000",
        "094507.400000",
        "094508.388000",
        "094509.392000",
        "094510.396000",
        "094511.398000",
        "094512.459000",
        "094513.460000",
        "094514.392000",
        "094515.408000",
        "094516.452000",
        "094517.437000",
        "094518.399000",
        "094519.437000",
        "094520.408000",
        "094521.401000",
        "094522.399000",
        "094523.391000",
        "094524.363000",
        "094525.400000",
        "094526.412000",
        "094527.401000",
        "094528.396000",
        "094529.399000",
        "094530.362000",
        "094531.407000",
        "094532.400000",
        "094533.391000",
        "094534.394000",
        "094535.428000",
        "094536.396000",
        "094537.445000",
        "094538.402000",
        "094539.431000",
        "094540.381000",
        "094541.395000",
        "094542.438000",
        "094543.402000",
        "094544.446000",
        "094545.386000",
        "094546.414000",
        "094547.397000",
        "094548.430000",
        "094549.422000",
        "094550.401000",
        "094551.397000",
        "094552.414000",
        "094553.400000",
        "094554.446000",
        "094555.405000",
        "094556.406000",
        "094557.388000",
        "094558.370000",
        "094559.402000",
        "094600.431000",
        "094601.388000",
        "094602.407000",
        "094603.454000",
        "094604.411000",
        "094605.405000",
        "094606.379000",
        "094607.427000",
        "094608.396000",
        "094609.405000",
        "094610.413000",
        "094611.407000",
        "094612.394000",
        "094613.439000",
        "094614.415000",
        "094615.408000",
        "094616.417000",
        "094617.406000",
        "094618.388000",
        "094619.459000",
        "094620.415000",
        "094621.391000",
        "094622.396000",
        "094623.421000",
        "094624.406000",
        "094625.459000",
        "094626.421000",
        "094627.400000",
        "094628.383000",
        "094629.427000",
        "094630.430000",
        "094631.390000",
        "094632.386000",
        "094633.397000",
        "094634.411000",
        "094635.408000",
        "094636.419000",
        "094637.426000",
        "094638.426000",
        "094639.391000",
        "094640.396000",
        "094641.393000",
        "094642.382000",
        "094643.406000",
        "094644.386000",
        "094645.416000",
        "094646.408000",
        "094647.426000",
        "094648.428000",
        "094649.411000",
        "094650.401000",
        "094651.452000",
        "094652.364000",
        "094653.415000",
        "094654.421000",
        "094655.457000",
        "094656.403000",
        "094657.393000",
        "094658.385000",
        "094659.422000",
        "094700.414000",
        "094701.406000",
        "094702.391000",
        "094703.443000",
        "094704.383000",
        "094705.416000",
        "094706.404000",
        "094707.381000",
        "094708.421000",
        "094709.437000"
      ],
      "InstanceNumber": [
        1,
        2,
        3,
        4,
        5,
        6,
        7,
        8,
        9,
        10,
        11,
        12,
        13,
        14,
        15,
        16,
        17,
        18,
        19,
        20,
        21,
        22,
        23,
        24,
        25,
        26,
        27,
        28,
        29,
        30,
        31,
        32,
        33,
        34,
        35,
        36,
        37,
        38,
        39,
        40,
        41,
        42,
        43,
        44,
        45,
        46,
        47,
        48,
        49,
        50,
        51,
        52,
        53,
        54,
        55,
        56,
        57,
        58,
        59,
        60,
        61,
        62,
        63,
        64,
        65,
        66,
        67,
        68,
        69,
        70,
        71,
        72,
        73,
        74,
        75,
        76,
        77,
        78,
        79,
        80,
        81,
        82,
        83,
        84,
        85,
        86,
        87,
        88,
        89,
        90,
        91,
        92,
        93,
        94,
        95,
        96,
        97,
        98,
        99,
        100,
        101,
        102,
        103,
        104,
        105,
        106,
        107,
        108,
        109,
        110,
        111,
        112,
        113,
        114,
        115,
        116,
        117,
        118,
        119,
        120,
        121,
        122,
        123,
        124,
        125,
        126,
        127,
        128,
        129,
        130,
        131,
        132,
        133,
        134,
        135,
        136,
        137,
        138,
        139,
        140,
        141,
        142,
        143,
        144,
        145,
        146,
        147,
        148,
        149,
        150,
        151,
        152,
        153,
        154,
        155,
