{
  "AcquisitionMatrixPE": 120,
  "AcquisitionNumber": 1,
  "AcquisitionTime": "19:07:7.542500",
  "BandwidthPerPixelPhaseEncode": 13.889,
  "BaseResolution": 120,
  "BodyPartExamined": "BRAIN",
  "ConsistencyInfo": "N4_VE11C_LATEST_20160120",
  "ConversionSoftware": "dcm2niix",
  "ConversionSoftwareVersion": "v1.0.20171215 (OpenJPEG build) GCC6.3.0",
  "DerivedVendorReportedEchoSpacing": 0.000599995,
  "DeviceSerialNumber": "66112",
  "DwellTime": 2e-06,
  "EchoTime": 0.103,
  "EchoTrainLength": 120,
  "EffectiveEchoSpacing": 0.000599995,
  "FlipAngle": 90,
  "ImageOrientationPatientDICOM": [
    0.997718,
    0.0544669,
    -0.0399106,
    -0.0570039,
    0.996226,
    -0.0654594
  ],
  "ImageType": [
    "ORIGINAL",
    "PRIMARY",
    "DIFFUSION",
    "NONE",
    "ND",
    "NORM",
    "MOSAIC"
  ],
  "InPlanePhaseEncodingDirectionDICOM": "COL",
  "InstitutionAddress": "Maynard_3_Hanover_NH_US_03755",
  "InstitutionName": "Dartmouth_College_-_PBS",
  "InstitutionalDepartmentName": "Department",
  "MRAcquisitionType": "2D",
  "MagneticFieldStrength": 3,
  "Manufacturer": "Siemens",
  "ManufacturersModelName": "Prisma",
  "Modality": "MR",
  "MultibandAccelerationFactor": 4,
  "PatientPosition": "HFS",
  "PercentPhaseFOV": 100,
  "PhaseEncodingDirection": "j-",
  "PhaseEncodingSteps": 120,
  "PhaseResolution": 1,
  "PixelBandwidth": 2085,
  "ProcedureStepDescription": "Gobbini_Matteo_1038_hyperface",
  "ProtocolName": "dwi_acq-2.0mmXhardi96Xsms4X11b0",
  "PulseSequenceDetails": "%SiemensSeq%_ep2d_diff",
  "ReceiveCoilActiveElements": "HEA;HEP",
  "ReceiveCoilName": "Head_32",
  "ReconMatrixPE": 120,
  "RepetitionTime": 2.6,
  "SAR": 0.290357,
  "ScanOptions": "FS",
  "ScanningSequence": "EP",
  "SequenceName": "_ep_b0",
  "SequenceVariant": "SK_SP",
  "SeriesDescription": "dwi_acq-2.0mmXhardi96Xsms4X11b0",
  "SeriesNumber": 66,
  "ShimSetting": [
    4130,
    -7687,
    -7306,
    693,
    -9,
    -104,
    28,
    93
  ],
  "SliceThickness": 2,
  "SliceTiming": [
    1.935,
    0,
    1.29,
    0.16,
    1.45,
    0.3225,
    1.6125,
    0.4825,
    1.7725,
    0.805,
    2.095,
    0.9675,
    2.2575,
    1.1275,
    2.4175,
    0.645,
    1.935,
    0,
    1.29,
    0.16,
    1.45,
    0.3225,
    1.6125,
    0.4825,
    1.7725,
    0.805,
    2.095,
    0.9675,
    2.2575,
    1.1275,
    2.4175,
    0.645,
    1.935,
    0,
    1.29,
    0.16,
    1.45,
    0.3225,
    1.6125,
    0.4825,
    1.7725,
    0.805,
    2.095,
    0.9675,
    2.2575,
    1.1275,
    2.4175,
    0.645,
    1.935,
    0,
    1.29,
    0.16,
    1.45,
    0.3225,
    1.6125,
    0.4825,
    1.7725,
    0.805,
    2.095,
    0.9675,
    2.2575,
    1.1275,
    2.4175,
    0.645
  ],
  "SoftwareVersions": "syngo_MR_E11",
  "SpacingBetweenSlices": 2,
  "StationName": "AWP66112",
  "TotalReadoutTime": 0.0713994,
  "TxRefAmp": 257.943,
  "dcmmeta_affine": [
    [
      -1.9954352378845215,
      -0.1140078529715538,
      -0.0723891332745552,
      132.33531188964844
    ],
    [
      -0.10893376171588898,
      1.9924514293670654,
      -0.1351700723171234,
      -92.30712127685547
    ],
    [
      -0.0798211395740509,
      0.13091875612735748,
      1.994113564491272,
      -82.37804412841797
    ],
    [
      0.0,
      0.0,
      0.0,
      1.0
    ]
  ],
  "dcmmeta_reorient_transform": [
    [
      0.0,
      -1.0,
      0.0,
      119.0
    ],
    [
      1.0,
      0.0,
      0.0,
      0.0
    ],
    [
      0.0,
      0.0,
      1.0,
      0.0
    ],
    [
      0.0,
      0.0,
      0.0,
      1.0
    ]
  ],
  "dcmmeta_shape": [
    120,
    120,
    64,
    107
  ],
  "dcmmeta_slice_dim": 2,
  "dcmmeta_version": 0.6,
  "global": {
    "const": {
      "AccessionNumber": "A001343",
      "AcquisitionMatrix": [
        120,
        0,
        0,
        120
      ],
      "AngioFlag": "N",
      "BitsAllocated": 16,
      "BitsStored": 12,
      "BodyPartExamined": "BRAIN",
      "Columns": 960,
      "EchoNumbers": 1,
      "EchoTime": 103.0,
      "EchoTrainLength": 120,
      "FlipAngle": 90.0,
      "HighBit": 11,
      "ImageOrientationPatient": [
        0.99771764816086,
        0.05446687900033,
        -0.0399105705337,
        -0.0570039282058,
        0.99622568821042,
        -0.0654593791505
      ],
      "ImagePositionPatient": [
        -908.96789830297,
        -1027.3763494314,
        21.712044091916
      ],
      "ImageType": [
        "ORIGINAL",
        "PRIMARY",
        "DIFFUSION",
        "NONE",
        "ND",
        "NORM",
        "MOSAIC"
      ],
      "ImagedNucleus": "1H",
      "ImagingFrequency": 123.252327,
      "InPlanePhaseEncodingDirection": "COL",
      "MRAcquisitionType": "2D",
      "MagneticFieldStrength": 3.0,
      "Manufacturer": "SIEMENS",
      "ManufacturerModelName": "Prisma",
      "Modality": "MR",
      "NumberOfAverages": 1.0,
      "NumberOfPhaseEncodingSteps": 120,
      "PercentPhaseFieldOfView": 100.0,
      "PercentSampling": 100.0,
      "PerformedProcedureStepStartTime": "181056.555000",
      "PhotometricInterpretation": "MONOCHROME2",
      "PixelBandwidth": 2085.0,
      "PixelRepresentation": 0,
      "PixelSpacing": [
        2.0,
        2.0
      ],
      "PositionReferenceIndicator": "",
      "ProtocolName": "dwi_acq-2.0mmXhardi96Xsms4X11b0",
      "RepetitionTime": 2600.0,
      "Rows": 960,
      "SAR": 0.29035731272929,
      "SamplesPerPixel": 1,
      "ScanOptions": "FS",
      "ScanningSequence": "EP",
      "SequenceVariant": [
        "SK",
        "SP"
      ],
      "SeriesDescription": "dwi_acq-2.0mmXhardi96Xsms4X11b0",
      "SeriesNumber": 66,
      "SeriesTime": "190750.150000",
      "SliceLocation": -80.686827969621,
      "SliceThickness": 2.0,
      "SmallestImagePixelValue": 0,
      "SoftwareVersions": "syngo MR E11",
      "SpacingBetweenSlices": 2.0000000044113,
      "SpecificCharacterSet": "ISO_IR 100",
      "StudyID": "2",
      "StudyTime": "181056.504000",
      "TransmitCoilName": "Body",
      "VariableFlipAngleFlag": "N",
      "WindowCenterWidthExplanation": "Algo1",
      "dBdt": 0.0
    },
    "slices": {}
  },
  "time": {
    "samples": {
      "AcquisitionNumber": [
        1,
        2,
        3,
        4,
        5,
        6,
        7,
        8,
        9,
        10,
        11,
        12,
        13,
        14,
        15,
        16,
        17,
        18,
        19,
        20,
        21,
        22,
        23,
        24,
        25,
        26,
        27,
        28,
        29,
        30,
        31,
        32,
        33,
        34,
        35,
        36,
        37,
        38,
        39,
        40,
        41,
        42,
        43,
        44,
        45,
        46,
        47,
        48,
        49,
        50,
        51,
        52,
        53,
        54,
        55,
        56,
        57,
        58,
        59,
        60,
        61,
        62,
        63,
        64,
        65,
        66,
        67,
        68,
        69,
        70,
        71,
        72,
        73,
        74,
        75,
        76,
        77,
        78,
        79,
        80,
        81,
        82,
        83,
        84,
        85,
        86,
        87,
        88,
        89,
        90,
        91,
        92,
        93,
        94,
        95,
        96,
        97,
        98,
        99,
        100,
        101,
        102,
        103,
        104,
        105,
        106,
        107
      ],
      "AcquisitionTime": [
        "190707.542500",
        "190710.142500",
        "190712.742500",
        "190715.342500",
        "190717.942500",
        "190720.542500",
        "190723.142500",
        "190725.742500",
        "190728.342500",
        "190730.942500",
        "190733.542500",
        "190736.142500",
        "190738.742500",
        "190741.342500",
        "190743.942500",
        "190746.542500",
        "190749.142500",
        "190751.742500",
        "190754.342500",
        "190756.942500",
        "190759.542500",
        "190802.142500",
        "190804.742500",
        "190807.342500",
        "190809.942500",
        "190812.542500",
        "190815.142500",
        "190817.742500",
        "190820.342500",
        "190822.942500",
        "190825.542500",
        "190828.142500",
        "190830.742500",
        "190833.342500",
        "190835.942500",
        "190838.542500",
        "190841.142500",
        "190843.742500",
        "190846.342500",
        "190848.942500",
        "190851.542500",
        "190854.142500",
        "190856.742500",
        "190859.342500",
        "190901.942500",
        "190904.542500",
        "190907.142500",
        "190909.742500",
        "190912.342500",
        "190914.942500",
        "190917.542500",
        "190920.142500",
        "190922.742500",
        "190925.342500",
        "190927.942500",
        "190930.542500",
        "190933.142500",
        "190935.742500",
        "190938.342500",
        "190940.942500",
        "190943.542500",
        "190946.142500",
        "190948.742500",
        "190951.342500",
        "190953.942500",
        "190956.542500",
        "190959.142500",
        "191001.742500",
        "191004.342500",
        "191006.942500",
        "191009.542500",
        "191012.142500",
        "191014.742500",
        "191017.342500",
        "191019.942500",
        "191022.542500",
        "191025.142500",
        "191027.742500",
        "191030.342500",
        "191032.942500",
        "191035.542500",
        "191038.142500",
        "191040.742500",
        "191043.342500",
        "191045.942500",
        "191048.542500",
        "191051.142500",
        "191053.742500",
        "191056.342500",
        "191058.942500",
        "191101.542500",
        "191104.142500",
        "191106.742500",
        "191109.342500",
        "191111.942500",
        "191114.542500",
        "191117.142500",
        "191119.742500",
        "191122.342500",
        "191124.942500",
        "191127.542500",
        "191130.142500",
        "191132.742500",
        "191135.342500",
        "191137.942500",
        "191140.542500",
        "191143.142500"
      ],
      "ContentTime": [
        "190750.154000",
        "190750.158000",
        "190750.161000",
        "190750.165000",
        "190750.168000",
        "190750.179000",
        "190750.182000",
        "190750.185000",
        "190750.191000",
        "190750.194000",
        "190750.198000",
        "190750.201000",
        "190750.204000",
        "190750.207000",
        "190750.210000",
        "190750.213000",
        "190850.148000",
        "190850.152000",
        "190850.156000",
        "190850.159000",
        "190850.162000",
        "190850.165000",
        "190850.168000",
        "190850.172000",
        "190850.175000",
        "190850.178000",
        "190850.181000",
        "190850.184000",
        "190850.188000",
        "190850.191000",
        "190850.194000",
        "190850.198000",
        "190850.201000",
        "190850.204000",
        "190850.207000",
        "190850.211000",
        "190850.214000",
        "190850.217000",
        "190850.220000",
        "190950.149000",
        "190950.153000",
        "190950.163000",
        "190950.166000",
        "190950.169000",
        "190950.172000",
        "190950.175000",
        "190950.178000",
        "190950.182000",
        "190950.185000",
        "190950.188000",
        "190950.191000",
        "190950.194000",
        "190950.198000",
        "190950.201000",
        "190950.204000",
        "190950.207000",
        "190950.211000",
        "190950.214000",
        "190950.217000",
        "190950.221000",
        "190950.224000",
        "190950.227000",
        "191050.149000",
        "191050.153000",
        "191050.156000",
        "191050.160000",
        "191050.163000",
        "191050.166000",
        "191050.169000",
        "191050.172000",
        "191050.176000",
        "191050.179000",
        "191050.182000",
        "191050.185000",
        "191050.188000",
        "191050.192000",
        "191050.195000",
        "191050.198000",
        "191050.201000",
        "191050.204000",
        "191050.207000",
        "191050.210000",
        "191050.214000",
        "191050.217000",
        "191050.220000",
        "191144.952000",
        "191144.955000",
        "191144.958000",
        "191144.961000",
        "191144.965000",
        "191144.968000",
        "191144.971000",
        "191144.974000",
        "191144.977000",
        "191144.980000",
        "191144.984000",
        "191144.987000",
        "191144.990000",
        "191144.993000",
        "191144.996000",
        "191145.001000",
        "191145.004000",
        "191145.007000",
        "191145.010000",
        "191145.013000",
        "191145.016000",
        "191145.020000"
      ],
      "InstanceCreationTime": [
        "190750.154000",
        "190750.158000",
        "190750.161000",
        "190750.165000",
        "190750.168000",
        "190750.179000",
        "190750.182000",
        "190750.185000",
        "190750.191000",
        "190750.194000",
        "190750.198000",
        "190750.201000",
        "190750.204000",
        "190750.207000",
        "190750.210000",
        "190750.213000",
        "190850.148000",
        "190850.152000",
        "190850.156000",
        "190850.159000",
        "190850.162000",
        "190850.165000",
        "190850.168000",
        "190850.172000",
        "190850.175000",
        "190850.178000",
        "190850.181000",
        "190850.184000",
        "190850.188000",
        "190850.191000",
        "190850.194000",
        "190850.198000",
        "190850.201000",
        "190850.204000",
        "190850.207000",
        "190850.211000",
        "190850.214000",
        "190850.217000",
        "190850.220000",
        "190950.149000",
        "190950.153000",
        "190950.163000",
        "190950.166000",
        "190950.169000",
        "190950.172000",
        "190950.175000",
        "190950.178000",
        "190950.182000",
        "190950.185000",
        "190950.188000",
        "190950.191000",
        "190950.194000",
        "190950.198000",
        "190950.201000",
        "190950.204000",
        "190950.207000",
        "190950.211000",
        "190950.214000",
        "190950.217000",
        "190950.221000",
        "190950.224000",
        "190950.227000",
        "191050.149000",
        "191050.153000",
        "191050.156000",
        "191050.160000",
        "191050.163000",
        "191050.166000",
        "191050.169000",
        "191050.172000",
        "191050.176000",
        "191050.179000",
        "191050.182000",
        "191050.185000",
        "191050.188000",
        "191050.192000",
        "191050.195000",
        "191050.198000",
        "191050.201000",
        "191050.204000",
        "191050.207000",
        "191050.210000",
        "191050.214000",
        "191050.217000",
        "191050.220000",
        "191144.952000",
        "191144.955000",
        "191144.958000",
        "191144.961000",
        "191144.965000",
        "191144.968000",
        "191144.971000",
        "191144.974000",
        "191144.977000",
        "191144.980000",
        "191144.984000",
        "191144.987000",
        "191144.990000",
        "191144.993000",
        "191144.996000",
        "191145.001000",
        "191145.004000",
        "191145.007000",
        "191145.010000",
        "191145.013000",
        "191145.016000",
        "191145.020000"
      ],
      "InstanceNumber": [
        1,
        2,
        3,
        4,
        5,
        6,
        7,
        8,
        9,
        10,
        11,
        12,
        13,
        14,
        15,
        16,
        17,
        18,
        19,
        20,
        21,
        22,
        23,
        24,
        25,
        26,
        27,
        28,
        29,
        30,
        31,
        32,
        33,
        34,
        35,
        36,
        37,
        38,
        39,
        40,
        41,
        42,
        43,
        44,
        45,
        46,
        47,
        48,
        49,
        50,
        51,
        52,
        53,
        54,
        55,
        56,
        57,
        58,
        59,
        60,
        61,
        62,
        63,
        64,
        65,
        66,
        67,
        68,
        69,
        70,
        71,
        72,
        73,
        74,
        75,
        76,
        77,
        78,
        79,
        80,
        81,
        82,
        83,
        84,
        85,
        86,
        87,
        88,
        89,
        90,
        91,
        92,
        93,
        94,
        95,
        96,
        97,
        98,
        99,
        100,
        101,
        102,
        103,
        104,
        105,
        106,
        107
      ],
      "LargestImagePixelValue": [
        2996,
        3062,
        411,
        539,
        471,
        447,
        451,
        461,
        446,
        403,
        457,
        3277,
        458,
        434,
        417,
        459,
        468,
        412,
        493,
        469,
        442,
        472,
        3127,
        469,
        449,
        442,
        480,
        439,
        456,
        433,
        427,
        451,
        445,
        3281,
        425,
        407,
        429,
        467,
        406,
        492,
        434,
        467,
        429,
        421,
        2925,
        384,
        399,
        445,
        444,
        460,
        392,
        477,
        422,
        432,
        468,
        2946,
        491,
        414,
        432,
        378,
        403,
        423,
        441,
        419,
        409,
        393,
        3087,
        453,
        504,
        395,
        432,
        473,
        432,
        461,
        458,
        428,
        412,
        3062,
        502,
        418,
        452,
        397,
        430,
        463,
        448,
        469,
        407,
        3018,
        416,
        441,
        463,
        477,
        419,
        430,
        487,
        480,
        435,
        2967,
        474,
        450,
        404,
        395,
        420,
        429,
        440,
        439,
        397
      ],
      "SequenceName": [
        "*ep_b0",
        "*ep_b0",
        "*ep_b1000#2",
        "*ep_b1000#3",
        "*ep_b1000#4",
        "*ep_b1000#5",
        "*ep_b1000#6",
        "*ep_b1000#7",
        "*ep_b1000#8",
        "*ep_b1000#9",
        "*ep_b1000#10",
        "*ep_b0",
        "*ep_b1000#12",
        "*ep_b1000#13",
        "*ep_b1000#14",
        "*ep_b1000#15",
        "*ep_b1000#16",
        "*ep_b1000#17",
        "*ep_b1000#18",
        "*ep_b1000#19",
        "*ep_b1000#20",
        "*ep_b1000#21",
        "*ep_b0",
        "*ep_b1000#23",
        "*ep_b1000#24",
        "*ep_b1000#25",
        "*ep_b1000#26",
        "*ep_b1000#27",
        "*ep_b1000#28",
        "*ep_b1000#29",
        "*ep_b1000#30",
        "*ep_b1000#31",
        "*ep_b1000#32",
        "*ep_b0",
        "*ep_b1000#34",
        "*ep_b1000#35",
        "*ep_b1000#36",
        "*ep_b1000#37",
        "*ep_b1000#38",
        "*ep_b1000#39",
        "*ep_b1000#40",
        "*ep_b1000#41",
        "*ep_b1000#42",
        "*ep_b1000#43",
        "*ep_b0",
        "*ep_b1000#45",
        "*ep_b1000#46",
        "*ep_b1000#47",
        "*ep_b1000#48",
        "*ep_b1000#49",
        "*ep_b1000#50",
        "*ep_b1000#51",
        "*ep_b1000#52",
        "*ep_b1000#53",
        "*ep_b1000#54",
        "*ep_b0",
        "*ep_b1000#56",
        "*ep_b1000#57",
        "*ep_b1000#58",
        "*ep_b1000#59",
        "*ep_b1000#60",
        "*ep_b1000#61",
        "*ep_b1000#62",
        "*ep_b1000#63",
        "*ep_b1000#64",
        "*ep_b1000#65",
        "*ep_b0",
        "*ep_b1000#67",
        "*ep_b1000#68",
        "*ep_b1000#69",
        "*ep_b1000#70",
        "*ep_b1000#71",
        "*ep_b1000#72",
        "*ep_b1000#73",
        "*ep_b1000#74",
        "*ep_b1000#75",
        "*ep_b1000#76",
        "*ep_b0",
        "*ep_b1000#78",
        "*ep_b1000#79",
        "*ep_b1000#80",
        "*ep_b1000#81",
        "*ep_b1000#82",
        "*ep_b1000#83",
        "*ep_b1000#84",
        "*ep_b1000#85",
        "*ep_b1000#86",
        "*ep_b0",
        "*ep_b1000#88",
        "*ep_b1000#89",
        "*ep_b1000#90",
        "*ep_b1000#91",
        "*ep_b1000#92",
        "*ep_b1000#93",
        "*ep_b1000#94",
        "*ep_b1000#95",
        "*ep_b1000#96",
        "*ep_b0",
        "*ep_b1000#98",
        "*ep_b1000#99",
        "*ep_b1000#100",
        "*ep_b1000#101",
        "*ep_b1000#102",
        "*ep_b1000#103",
        "*ep_b1000#104",
        "*ep_b1000#105",
        "*ep_b1000#106"
      ],
      "WindowCenter": [
        265.0,
        267.0,
        109.0,
        115.0,
        111.0,
        112.0,
        112.0,
        111.0,
        113.0,
        108.0,
        113.0,
        278.0,
        113.0,
        111.0,
        109.0,
        112.0,
        113.0,
        109.0,
        112.0,
        113.0,
        110.0,
        113.0,
        269.0,
        111.0,
        114.0,
        110.0,
        111.0,
        113.0,
        110.0,
        112.0,
        109.0,
        111.0,
        114.0,
        278.0,
        112.0,
        111.0,
        109.0,
        113.0,
        109.0,
        113.0,
        112.0,
        112.0,
        110.0,
        113.0,
        258.0,
        111.0,
        110.0,
        114.0,
        112.0,
        111.0,
        110.0,
        111.0,
        111.0,
        112.0,
        112.0,
        259.0,
        113.0,
        109.0,
        112.0,
        109.0,
        113.0,
        112.0,
        112.0,
        110.0,
        111.0,
        110.0,
        266.0,
        111.0,
        114.0,
        111.0,
        111.0,
        111.0,
        110.0,
        112.0,
        111.0,
        112.0,
        110.0,
        266.0,
        113.0,
        111.0,
        112.0,
        110.0,
        113.0,
        111.0,
        112.0,
        112.0,
        110.0,
        263.0,
        112.0,
        112.0,
        113.0,
        112.0,
        111.0,
        110.0,
        114.0,
        112.0,
        111.0,
        260.0,
        111.0,
        111.0,
        110.0,
        111.0,
        112.0,
        112.0,
        110.0,
        112.0,
        110.0
      ],
      "WindowWidth": [
        616.0,
        616.0,
        275.0,
        286.0,
        279.0,
        281.0,
        280.0,
        280.0,
        283.0,
        273.0,
        282.0,
        629.0,
        282.0,
        279.0,
        275.0,
        282.0,
        283.0,
        275.0,
        281.0,
        283.0,
        276.0,
        283.0,
        617.0,
        279.0,
        284.0,
        276.0,
        280.0,
        283.0,
        278.0,
        281.0,
        275.0,
        279.0,
        285.0,
        628.0,
        281.0,
        280.0,
        274.0,
        283.0,
        275.0,
        282.0,
        281.0,
        281.0,
        277.0,
        282.0,
        601.0,
        278.0,
        277.0,
        285.0,
        281.0,
        279.0,
        278.0,
        279.0,
        278.0,
        282.0,
        280.0,
        603.0,
        283.0,
        275.0,
        282.0,
        275.0,
        283.0,
        281.0,
        281.0,
        277.0,
        279.0,
        277.0,
        614.0,
        279.0,
        284.0,
        279.0,
        280.0,
        278.0,
        276.0,
        281.0,
        279.0,
        282.0,
        276.0,
        614.0,
        283.0,
        279.0,
        280.0,
        277.0,
        283.0,
        279.0,
        280.0,
        281.0,
        277.0,
        609.0,
        280.0,
        281.0,
        283.0,
        281.0,
        279.0,
        277.0,
        285.0,
        281.0,
        279.0,
        603.0,
        279.0,
        278.0,
        278.0,
        279.0,
        281.0,
        281.0,
        277.0,
        281.0,
        277.0
      ]
    },
    "slices": {}
  },
  "CoilCombinationMethod": "Adaptive Combine",
  "NonlinearGradientCorrection": false,
  "PulseSequenceType": "Spin Echo EPI",
  "B0FieldSource": "pepolar_ses-1"
}
