{
  "AcquisitionMatrixPE": 120,
  "AcquisitionNumber": 1,
  "AcquisitionTime": "19:55:46.512500",
  "BandwidthPerPixelPhaseEncode": 13.889,
  "BaseResolution": 120,
  "BodyPartExamined": "BRAIN",
  "ConsistencyInfo": "N4_VE11C_LATEST_20160120",
  "ConversionSoftware": "dcm2niix",
  "ConversionSoftwareVersion": "v1.0.20170923 (OpenJPEG build) GCC6.3.0",
  "DerivedVendorReportedEchoSpacing": 0.000599995,
  "DeviceSerialNumber": "66112",
  "DwellTime": 2e-06,
  "EchoTime": 0.103,
  "EchoTrainLength": 120,
  "EffectiveEchoSpacing": 0.000599995,
  "FlipAngle": 90,
  "ImageType": [
    "ORIGINAL",
    "PRIMARY",
    "DIFFUSION",
    "NONE",
    "ND",
    "NORM",
    "MOSAIC"
  ],
  "InstitutionAddress": "Maynard_3_Hanover_NH_US_03755",
  "InstitutionName": "Dartmouth_College_-_PBS",
  "MagneticFieldStrength": 3,
  "Manufacturer": "Siemens",
  "ManufacturersModelName": "Prisma",
  "Modality": "MR",
  "MultibandAccelerationFactor": 4,
  "PercentPhaseFOV": 100,
  "PhaseEncodingDirection": "j-",
  "PhaseEncodingSteps": 120,
  "PhaseResolution": 1,
  "ProcedureStepDescription": "Gobbini_Matteo_1038_hyperface",
  "ProtocolName": "dwi_acq-2.0mmXhardi96Xsms4X11b0",
  "PulseSequenceDetails": "%SiemensSeq%_ep2d_diff",
  "ReceiveCoilActiveElements": "HEA;HEP",
  "ReceiveCoilName": "Head_32",
  "ReconMatrixPE": 120,
  "RepetitionTime": 2.6,
  "ScanOptions": "FS",
  "ScanningSequence": "EP",
  "SequenceName": "_ep_b0",
  "SequenceVariant": "SK_SP",
  "SeriesDescription": "dwi_acq-2.0mmXhardi96Xsms4X11b0",
  "SliceTiming": [
    1.935,
    0,
    1.29,
    0.1625,
    1.4525,
    0.3225,
    1.6125,
    0.485,
    1.775,
    0.8075,
    2.0975,
    0.9675,
    2.2575,
    1.13,
    2.42,
    0.645,
    1.935,
    0,
    1.29,
    0.1625,
    1.4525,
    0.3225,
    1.6125,
    0.485,
    1.775,
    0.8075,
    2.0975,
    0.9675,
    2.2575,
    1.13,
    2.42,
    0.645,
    1.935,
    0,
    1.29,
    0.1625,
    1.4525,
    0.3225,
    1.6125,
    0.485,
    1.775,
    0.8075,
    2.0975,
    0.9675,
    2.2575,
    1.13,
    2.42,
    0.645,
    1.935,
    0,
    1.29,
    0.1625,
    1.4525,
    0.3225,
    1.6125,
    0.485,
    1.775,
    0.8075,
    2.0975,
    0.9675,
    2.2575,
    1.13,
    2.42,
    0.645
  ],
  "SoftwareVersions": "syngo_MR_E11",
  "StationName": "AWP66112",
  "TotalReadoutTime": 0.0713994,
  "dcmmeta_affine": [
    [
      -1.995368480682373,
      -0.13603070378303528,
      0.0006550194229930639,
      127.65420532226562
    ],
    [
      -0.1359928399324417,
      1.9949986934661865,
      0.03855203464627266,
      -92.02784729003906
    ],
    [
      0.0032755115535110235,
      -0.03841821849346161,
      1.9996283054351807,
      -66.184814453125
    ],
    [
      0.0,
      0.0,
      0.0,
      1.0
    ]
  ],
  "dcmmeta_reorient_transform": [
    [
      0.0,
      -1.0,
      0.0,
      119.0
    ],
    [
      1.0,
      0.0,
      0.0,
      0.0
    ],
    [
      0.0,
      0.0,
      1.0,
      0.0
    ],
    [
      0.0,
      0.0,
      0.0,
      1.0
    ]
  ],
  "dcmmeta_shape": [
    120,
    120,
    64,
    107
  ],
  "dcmmeta_slice_dim": 2,
  "dcmmeta_version": 0.6,
  "global": {
    "const": {
      "AccessionNumber": "A001142",
      "AcquisitionMatrix": [
        120,
        0,
        0,
        120
      ],
      "AngioFlag": "N",
      "BitsAllocated": 16,
      "BitsStored": 12,
      "BodyPartExamined": "BRAIN",
      "Columns": 960,
      "EchoNumbers": 1,
      "EchoTime": 103.0,
      "EchoTrainLength": 120,
      "FlipAngle": 90.0,
      "HighBit": 11,
      "ImageOrientationPatient": [
        0.9976842210626,
        0.06799641754222,
        0.00163775582428,
        -0.0680153495919,
        0.99749933450194,
        0.01920910950781
      ],
      "ImagePositionPatient": [
        -892.38840776147,
        -1040.3934237934,
        -88.267949825249
      ],
      "ImageType": [
        "ORIGINAL",
        "PRIMARY",
        "DIFFUSION",
        "NONE",
        "ND",
        "NORM",
        "MOSAIC"
      ],
      "ImagedNucleus": "1H",
      "ImagingFrequency": 123.252309,
      "InPlanePhaseEncodingDirection": "COL",
      "MRAcquisitionType": "2D",
      "MagneticFieldStrength": 3.0,
      "Manufacturer": "SIEMENS",
      "ManufacturerModelName": "Prisma",
      "Modality": "MR",
      "NumberOfAverages": 1.0,
      "NumberOfPhaseEncodingSteps": 120,
      "PercentPhaseFieldOfView": 100.0,
      "PercentSampling": 100.0,
      "PerformedProcedureStepStartTime": "185927.297000",
      "PhotometricInterpretation": "MONOCHROME2",
      "PixelBandwidth": 2085.0,
      "PixelRepresentation": 0,
      "PixelSpacing": [
        2.0,
        2.0
      ],
      "PositionReferenceIndicator": "",
      "ProtocolName": "dwi_acq-2.0mmXhardi96Xsms4X11b0",
      "RepetitionTime": 2600.0,
      "Rows": 960,
      "SAR": 0.32467426721886,
      "SamplesPerPixel": 1,
      "ScanOptions": "FS",
      "ScanningSequence": "EP",
      "SequenceVariant": [
        "SK",
        "SP"
      ],
      "SeriesDescription": "dwi_acq-2.0mmXhardi96Xsms4X11b0",
      "SeriesNumber": 65,
      "SeriesTime": "195639.213000",
      "SliceLocation": -67.904636704636,
      "SliceThickness": 2.0,
      "SmallestImagePixelValue": 0,
      "SoftwareVersions": "syngo MR E11",
      "SpacingBetweenSlices": 1.9999999854462,
      "SpecificCharacterSet": "ISO_IR 100",
      "StudyID": "3",
      "StudyTime": "185927.167000",
      "TransmitCoilName": "Body",
      "VariableFlipAngleFlag": "N",
      "WindowCenterWidthExplanation": "Algo1",
      "dBdt": 0.0
    },
    "slices": {}
  },
  "time": {
    "samples": {
      "AcquisitionNumber": [
        1,
        2,
        3,
        4,
        5,
        6,
        7,
        8,
        9,
        10,
        11,
        12,
        13,
        14,
        15,
        16,
        17,
        18,
        19,
        20,
        21,
        22,
        23,
        24,
        25,
        26,
        27,
        28,
        29,
        30,
        31,
        32,
        33,
        34,
        35,
        36,
        37,
        38,
        39,
        40,
        41,
        42,
        43,
        44,
        45,
        46,
        47,
        48,
        49,
        50,
        51,
        52,
        53,
        54,
        55,
        56,
        57,
        58,
        59,
        60,
        61,
        62,
        63,
        64,
        65,
        66,
        67,
        68,
        69,
        70,
        71,
        72,
        73,
        74,
        75,
        76,
        77,
        78,
        79,
        80,
        81,
        82,
        83,
        84,
        85,
        86,
        87,
        88,
        89,
        90,
        91,
        92,
        93,
        94,
        95,
        96,
        97,
        98,
        99,
        100,
        101,
        102,
        103,
        104,
        105,
        106,
        107
      ],
      "AcquisitionTime": [
        "195546.512500",
        "195549.112500",
        "195551.712500",
        "195554.312500",
        "195556.912500",
        "195559.512500",
        "195602.112500",
        "195604.712500",
        "195607.312500",
        "195609.912500",
        "195612.512500",
        "195615.112500",
        "195617.712500",
        "195620.312500",
        "195622.912500",
        "195625.512500",
        "195628.112500",
        "195630.712500",
        "195633.312500",
        "195635.912500",
        "195638.512500",
        "195641.112500",
        "195643.712500",
        "195646.312500",
        "195648.912500",
        "195651.512500",
        "195654.112500",
        "195656.712500",
        "195659.312500",
        "195701.912500",
        "195704.512500",
        "195707.112500",
        "195709.712500",
        "195712.312500",
        "195714.912500",
        "195717.512500",
        "195720.112500",
        "195722.712500",
        "195725.312500",
        "195727.912500",
        "195730.512500",
        "195733.112500",
        "195735.712500",
        "195738.312500",
        "195740.912500",
        "195743.512500",
        "195746.112500",
        "195748.712500",
        "195751.312500",
        "195753.912500",
        "195756.512500",
        "195759.112500",
        "195801.712500",
        "195804.312500",
        "195806.912500",
        "195809.512500",
        "195812.112500",
        "195814.712500",
        "195817.312500",
        "195819.912500",
        "195822.512500",
        "195825.112500",
        "195827.712500",
        "195830.312500",
        "195832.912500",
        "195835.512500",
        "195838.112500",
        "195840.712500",
        "195843.312500",
        "195845.912500",
        "195848.512500",
        "195851.112500",
        "195853.712500",
        "195856.312500",
        "195858.912500",
        "195901.512500",
        "195904.112500",
        "195906.712500",
        "195909.312500",
        "195911.912500",
        "195914.512500",
        "195917.112500",
        "195919.712500",
        "195922.312500",
        "195924.912500",
        "195927.512500",
        "195930.112500",
        "195932.712500",
        "195935.312500",
        "195937.912500",
        "195940.512500",
        "195943.112500",
        "195945.712500",
        "195948.312500",
        "195950.912500",
        "195953.512500",
        "195956.112500",
        "195958.712500",
        "200001.312500",
        "200003.912500",
        "200006.512500",
        "200009.112500",
        "200011.712500",
        "200014.312500",
        "200016.912500",
        "200019.512500",
        "200022.112500"
      ],
      "ContentTime": [
        "195639.217000",
        "195639.221000",
        "195639.224000",
        "195639.227000",
        "195639.230000",
        "195639.233000",
        "195639.237000",
        "195639.251000",
        "195639.254000",
        "195639.263000",
        "195639.269000",
        "195639.272000",
        "195639.275000",
        "195639.278000",
        "195639.281000",
        "195639.285000",
        "195639.288000",
        "195639.291000",
        "195639.294000",
        "195639.297000",
        "195739.213000",
        "195739.217000",
        "195739.220000",
        "195739.223000",
        "195739.226000",
        "195739.230000",
        "195739.233000",
        "195739.236000",
        "195739.239000",
        "195739.242000",
        "195739.246000",
        "195739.249000",
        "195739.252000",
        "195739.255000",
        "195739.258000",
        "195739.261000",
        "195739.264000",
        "195739.268000",
        "195739.271000",
        "195739.274000",
        "195739.281000",
        "195739.285000",
        "195739.288000",
        "195839.212000",
        "195839.215000",
        "195839.218000",
        "195839.222000",
        "195839.225000",
        "195839.228000",
        "195839.231000",
        "195839.234000",
        "195839.238000",
        "195839.241000",
        "195839.244000",
        "195839.247000",
        "195839.250000",
        "195839.253000",
        "195839.256000",
        "195839.259000",
        "195839.263000",
        "195839.266000",
        "195839.269000",
        "195839.272000",
        "195839.275000",
        "195839.278000",
        "195839.283000",
        "195939.212000",
        "195939.216000",
        "195939.219000",
        "195939.222000",
        "195939.225000",
        "195939.228000",
        "195939.232000",
        "195939.235000",
        "195939.238000",
        "195939.241000",
        "195939.244000",
        "195939.248000",
        "195939.251000",
        "195939.254000",
        "195939.257000",
        "195939.261000",
        "195939.264000",
        "195939.267000",
        "195939.270000",
        "195939.273000",
        "195939.277000",
        "195939.280000",
        "195939.283000",
        "200025.723000",
        "200025.726000",
        "200025.729000",
        "200025.733000",
        "200025.736000",
        "200025.739000",
        "200025.742000",
        "200025.746000",
        "200025.749000",
        "200025.752000",
        "200025.755000",
        "200025.758000",
        "200025.761000",
        "200025.771000",
        "200025.774000",
        "200025.778000",
        "200025.781000",
        "200025.784000"
      ],
      "InstanceCreationTime": [
        "195639.217000",
        "195639.221000",
        "195639.224000",
        "195639.227000",
        "195639.230000",
        "195639.233000",
        "195639.237000",
        "195639.251000",
        "195639.254000",
        "195639.263000",
        "195639.269000",
        "195639.272000",
        "195639.275000",
        "195639.278000",
        "195639.281000",
        "195639.285000",
        "195639.288000",
        "195639.291000",
        "195639.294000",
        "195639.297000",
        "195739.213000",
        "195739.217000",
        "195739.220000",
        "195739.223000",
        "195739.226000",
        "195739.230000",
        "195739.233000",
        "195739.236000",
        "195739.239000",
        "195739.242000",
        "195739.246000",
        "195739.249000",
        "195739.252000",
        "195739.255000",
        "195739.258000",
        "195739.261000",
        "195739.264000",
        "195739.268000",
        "195739.271000",
        "195739.274000",
        "195739.281000",
        "195739.285000",
        "195739.288000",
        "195839.212000",
        "195839.215000",
        "195839.218000",
        "195839.222000",
        "195839.225000",
        "195839.228000",
        "195839.231000",
        "195839.234000",
        "195839.238000",
        "195839.241000",
        "195839.244000",
        "195839.247000",
        "195839.250000",
        "195839.253000",
        "195839.256000",
        "195839.259000",
        "195839.263000",
        "195839.266000",
        "195839.269000",
        "195839.272000",
        "195839.275000",
        "195839.278000",
        "195839.283000",
        "195939.212000",
        "195939.216000",
        "195939.219000",
        "195939.222000",
        "195939.225000",
        "195939.228000",
        "195939.232000",
        "195939.235000",
        "195939.238000",
        "195939.241000",
        "195939.244000",
        "195939.248000",
        "195939.251000",
        "195939.254000",
        "195939.257000",
        "195939.261000",
        "195939.264000",
        "195939.267000",
        "195939.270000",
        "195939.273000",
        "195939.277000",
        "195939.280000",
        "195939.283000",
        "200025.723000",
        "200025.726000",
        "200025.729000",
        "200025.733000",
        "200025.736000",
        "200025.739000",
        "200025.742000",
        "200025.746000",
        "200025.749000",
        "200025.752000",
        "200025.755000",
        "200025.758000",
        "200025.761000",
        "200025.771000",
        "200025.774000",
        "200025.778000",
        "200025.781000",
        "200025.784000"
      ],
      "InstanceNumber": [
        1,
        2,
        3,
        4,
        5,
        6,
        7,
        8,
        9,
        10,
        11,
        12,
        13,
        14,
        15,
        16,
        17,
        18,
        19,
        20,
        21,
        22,
        23,
        24,
        25,
        26,
        27,
        28,
        29,
        30,
        31,
        32,
        33,
        34,
        35,
        36,
        37,
        38,
        39,
        40,
        41,
        42,
        43,
        44,
        45,
        46,
        47,
        48,
        49,
        50,
        51,
        52,
        53,
        54,
        55,
        56,
        57,
        58,
        59,
        60,
        61,
        62,
        63,
        64,
        65,
        66,
        67,
        68,
        69,
        70,
        71,
        72,
        73,
        74,
        75,
        76,
        77,
        78,
        79,
        80,
        81,
        82,
        83,
        84,
        85,
        86,
        87,
        88,
        89,
        90,
        91,
        92,
        93,
        94,
        95,
        96,
        97,
        98,
        99,
        100,
        101,
        102,
        103,
        104,
        105,
        106,
        107
      ],
      "LargestImagePixelValue": [
        2393,
        2392,
        421,
        390,
        373,
        350,
        477,
        475,
        378,
        326,
        406,
        2061,
        420,
        418,
        408,
        455,
        327,
        418,
        418,
        409,
        421,
        334,
        2276,
        485,
        402,
        395,
        443,
        393,
        411,
        452,
        364,
        431,
        402,
        2144,
        351,
        421,
        450,
        392,
        401,
        429,
        458,
        387,
        376,
        429,
        2367,
        358,
        395,
        409,
        445,
        431,
        410,
        395,
        451,
        445,
        386,
        2426,
        451,
        415,
        406,
        449,
        451,
        430,
        367,
        439,
        448,
        412,
        2327,
        434,
        456,
        477,
        344,
        424,
        432,
        437,
        416,
        416,
        398,
        2166,
        416,
        424,
        425,
        414,
        481,
        391,
        422,
        437,
        415,
        2261,
        386,
        437,
        442,
        397,
        448,
        400,
        378,
        380,
        392,
        2488,
        471,
        420,
        453,
        355,
        447,
        451,
        435,
        417,
        395
      ],
      "SequenceName": [
        "*ep_b0",
        "*ep_b0",
        "*ep_b1000#2",
        "*ep_b1000#3",
        "*ep_b1000#4",
        "*ep_b1000#5",
        "*ep_b1000#6",
        "*ep_b1000#7",
        "*ep_b1000#8",
        "*ep_b1000#9",
        "*ep_b1000#10",
        "*ep_b0",
        "*ep_b1000#12",
        "*ep_b1000#13",
        "*ep_b1000#14",
        "*ep_b1000#15",
        "*ep_b1000#16",
        "*ep_b1000#17",
        "*ep_b1000#18",
        "*ep_b1000#19",
        "*ep_b1000#20",
        "*ep_b1000#21",
        "*ep_b0",
        "*ep_b1000#23",
        "*ep_b1000#24",
        "*ep_b1000#25",
        "*ep_b1000#26",
        "*ep_b1000#27",
        "*ep_b1000#28",
        "*ep_b1000#29",
        "*ep_b1000#30",
        "*ep_b1000#31",
        "*ep_b1000#32",
        "*ep_b0",
        "*ep_b1000#34",
        "*ep_b1000#35",
        "*ep_b1000#36",
        "*ep_b1000#37",
        "*ep_b1000#38",
        "*ep_b1000#39",
        "*ep_b1000#40",
        "*ep_b1000#41",
        "*ep_b1000#42",
        "*ep_b1000#43",
        "*ep_b0",
        "*ep_b1000#45",
        "*ep_b1000#46",
        "*ep_b1000#47",
        "*ep_b1000#48",
        "*ep_b1000#49",
        "*ep_b1000#50",
        "*ep_b1000#51",
        "*ep_b1000#52",
        "*ep_b1000#53",
        "*ep_b1000#54",
        "*ep_b0",
        "*ep_b1000#56",
        "*ep_b1000#57",
        "*ep_b1000#58",
        "*ep_b1000#59",
        "*ep_b1000#60",
        "*ep_b1000#61",
        "*ep_b1000#62",
        "*ep_b1000#63",
        "*ep_b1000#64",
        "*ep_b1000#65",
        "*ep_b0",
        "*ep_b1000#67",
        "*ep_b1000#68",
        "*ep_b1000#69",
        "*ep_b1000#70",
        "*ep_b1000#71",
        "*ep_b1000#72",
        "*ep_b1000#73",
        "*ep_b1000#74",
        "*ep_b1000#75",
        "*ep_b1000#76",
        "*ep_b0",
        "*ep_b1000#78",
        "*ep_b1000#79",
        "*ep_b1000#80",
        "*ep_b1000#81",
        "*ep_b1000#82",
        "*ep_b1000#83",
        "*ep_b1000#84",
        "*ep_b1000#85",
        "*ep_b1000#86",
        "*ep_b0",
        "*ep_b1000#88",
        "*ep_b1000#89",
        "*ep_b1000#90",
        "*ep_b1000#91",
        "*ep_b1000#92",
        "*ep_b1000#93",
        "*ep_b1000#94",
        "*ep_b1000#95",
        "*ep_b1000#96",
        "*ep_b0",
        "*ep_b1000#98",
        "*ep_b1000#99",
        "*ep_b1000#100",
        "*ep_b1000#101",
        "*ep_b1000#102",
        "*ep_b1000#103",
        "*ep_b1000#104",
        "*ep_b1000#105",
        "*ep_b1000#106"
      ],
      "WindowCenter": [
        241.0,
        241.0,
        99.0,
        104.0,
        100.0,
        101.0,
        101.0,
        100.0,
        103.0,
        97.0,
        103.0,
        231.0,
        103.0,
        100.0,
        99.0,
        102.0,
        101.0,
        98.0,
        102.0,
        102.0,
        100.0,
        100.0,
        234.0,
        102.0,
        102.0,
        101.0,
        100.0,
        103.0,
        99.0,
        103.0,
        98.0,
        101.0,
        104.0,
        229.0,
        100.0,
        101.0,
        98.0,
        103.0,
        99.0,
        103.0,
        102.0,
        101.0,
        100.0,
        103.0,
        236.0,
        99.0,
        100.0,
        103.0,
        101.0,
        102.0,
        100.0,
        101.0,
        101.0,
        102.0,
        101.0,
        240.0,
        102.0,
        99.0,
        101.0,
        99.0,
        104.0,
        102.0,
        101.0,
        100.0,
        100.0,
        101.0,
        237.0,
        101.0,
        104.0,
        101.0,
        99.0,
        101.0,
        100.0,
        103.0,
        99.0,
        101.0,
        100.0,
        233.0,
        102.0,
        101.0,
        102.0,
        101.0,
        102.0,
        100.0,
        102.0,
        102.0,
        100.0,
        234.0,
        100.0,
        102.0,
        103.0,
        102.0,
        101.0,
        98.0,
        103.0,
        101.0,
        100.0,
        240.0,
        102.0,
        101.0,
        100.0,
        100.0,
        102.0,
        102.0,
        101.0,
        102.0,
        98.0
      ],
      "WindowWidth": [
        567.0,
        564.0,
        252.0,
        263.0,
        255.0,
        258.0,
        256.0,
        255.0,
        261.0,
        248.0,
        261.0,
        550.0,
        260.0,
        255.0,
        253.0,
        259.0,
        258.0,
        250.0,
        259.0,
        259.0,
        255.0,
        256.0,
        553.0,
        259.0,
        259.0,
        257.0,
        255.0,
        261.0,
        253.0,
        261.0,
        251.0,
        257.0,
        262.0,
        544.0,
        255.0,
        258.0,
        250.0,
        261.0,
        253.0,
        261.0,
        259.0,
        257.0,
        255.0,
        261.0,
        555.0,
        253.0,
        255.0,
        261.0,
        256.0,
        259.0,
        255.0,
        257.0,
        256.0,
        259.0,
        258.0,
        564.0,
        258.0,
        253.0,
        257.0,
        252.0,
        262.0,
        258.0,
        257.0,
        254.0,
        255.0,
        257.0,
        559.0,
        256.0,
        262.0,
        256.0,
        253.0,
        256.0,
        254.0,
        261.0,
        253.0,
        257.0,
        255.0,
        553.0,
        259.0,
        257.0,
        259.0,
        256.0,
        258.0,
        255.0,
        258.0,
        258.0,
        255.0,
        554.0,
        256.0,
        259.0,
        261.0,
        258.0,
        256.0,
        251.0,
        260.0,
        257.0,
        254.0,
        561.0,
        259.0,
        257.0,
        254.0,
        255.0,
        258.0,
        259.0,
        256.0,
        258.0,
        251.0
      ]
    },
    "slices": {}
  },
  "CoilCombinationMethod": "Adaptive Combine",
  "NonlinearGradientCorrection": false,
  "MRAcquisitionType": "2D",
  "InstitutionalDepartmentName": "Department",
  "PulseSequenceType": "Spin Echo EPI",
  "B0FieldSource": "pepolar_ses-2"
}
