{
  "AcquisitionMatrixPE": 96,
  "AcquisitionNumber": 1,
  "BandwidthPerPixelPhaseEncode": 18.939,
  "BaseResolution": 96,
  "BodyPartExamined": "BRAIN",
  "ConsistencyInfo": "N4_VE11C_LATEST_20160120",
  "ConversionSoftware": "dcm2niix",
  "ConversionSoftwareVersion": "v1.0.20171215 (OpenJPEG build) GCC6.3.0",
  "DerivedVendorReportedEchoSpacing": 0.000550011,
  "DeviceSerialNumber": "66112",
  "DwellTime": 2.2e-06,
  "EchoTime": 0.033,
  "EchoTrainLength": 96,
  "EffectiveEchoSpacing": 0.000550011,
  "FlipAngle": 59,
  "ImageOrientationPatientDICOM": [
    0.998737,
    0.0497006,
    0.0073862,
    -0.0495453,
    0.998574,
    -0.0198955
  ],
  "ImageType": [
    "ORIGINAL",
    "PRIMARY",
    "FMRI",
    "NONE",
    "ND",
    "NORM",
    "MOSAIC"
  ],
  "InPlanePhaseEncodingDirectionDICOM": "COL",
  "InstitutionAddress": "Maynard_3_Hanover_NH_US_03755",
  "InstitutionName": "Dartmouth_College_-_PBS",
  "InstitutionalDepartmentName": "Department",
  "MRAcquisitionType": "2D",
  "MagneticFieldStrength": 3,
  "Manufacturer": "Siemens",
  "ManufacturersModelName": "Prisma",
  "Modality": "MR",
  "MultibandAccelerationFactor": 4,
  "PartialFourier": 1,
  "PatientPosition": "HFS",
  "PercentPhaseFOV": 100,
  "PhaseEncodingDirection": "j-",
  "PhaseEncodingSteps": 96,
  "PhaseResolution": 1,
  "PixelBandwidth": 2365,
  "ProcedureStepDescription": "Gobbini_Matteo_1038_hyperface",
  "ProtocolName": "func_run-03_task-visualmemory",
  "PulseSequenceDetails": "%SiemensSeq%_ep2d_bold",
  "ReceiveCoilActiveElements": "HEA;HEP",
  "ReceiveCoilName": "Head_32",
  "ReconMatrixPE": 96,
  "RepetitionTime": 1,
  "SAR": 0.0368696,
  "ScanOptions": "FS",
  "ScanningSequence": "EP",
  "SequenceName": "_epfid2d1_96",
  "SequenceVariant": "SK",
  "SeriesDescription": "func_run-03_task-visualmemory",
  "SeriesNumber": 22,
  "ShimSetting": [
    4118,
    -7732,
    -7329,
    675,
    85,
    95,
    123,
    35
  ],
  "SliceThickness": 2.5,
  "SliceTiming": [
    0.735,
    0,
    0.49,
    0.0825,
    0.5725,
    0.1625,
    0.6525,
    0.3275,
    0.8175,
    0.4075,
    0.8975,
    0.245,
    0.735,
    0,
    0.49,
    0.0825,
    0.5725,
    0.1625,
    0.6525,
    0.3275,
    0.8175,
    0.4075,
    0.8975,
    0.245,
    0.735,
    0,
    0.49,
    0.0825,
    0.5725,
    0.1625,
    0.6525,
    0.3275,
    0.8175,
    0.4075,
    0.8975,
    0.245,
    0.735,
    0,
    0.49,
    0.0825,
    0.5725,
    0.1625,
    0.6525,
    0.3275,
    0.8175,
    0.4075,
    0.8975,
    0.245
  ],
  "SoftwareVersions": "syngo_MR_E11",
  "SpacingBetweenSlices": 2.5,
  "StationName": "AWP66112",
  "TotalReadoutTime": 0.0522511,
  "TxRefAmp": 232.668,
  "time": {
    "samples": {
      "AcquisitionNumber": [
        1,
        2,
        3,
        4,
        5,
        6,
        7,
        8,
        9,
        10,
        11,
        12,
        13,
        14,
        15,
        16,
        17,
        18,
        19,
        20,
        21,
        22,
        23,
        24,
        25,
        26,
        27,
        28,
        29,
        30,
        31,
        32,
        33,
        34,
        35,
        36,
        37,
        38,
        39,
        40,
        41,
        42,
        43,
        44,
        45,
        46,
        47,
        48,
        49,
        50,
        51,
        52,
        53,
        54,
        55,
        56,
        57,
        58,
        59,
        60,
        61,
        62,
        63,
        64,
        65,
        66,
        67,
        68,
        69,
        70,
        71,
        72,
        73,
        74,
        75,
        76,
        77,
        78,
        79,
        80,
        81,
        82,
        83,
        84,
        85,
        86,
        87,
        88,
        89,
        90,
        91,
        92,
        93,
        94,
        95,
        96,
        97,
        98,
        99,
        100,
        101,
        102,
        103,
        104,
        105,
        106,
        107,
        108,
        109,
        110,
        111,
        112,
        113,
        114,
        115,
        116,
        117,
        118,
        119,
        120,
        121,
        122,
        123,
        124,
        125,
        126,
        127,
        128,
        129,
        130,
        131,
        132,
        133,
        134,
        135,
        136,
        137,
        138,
        139,
        140,
        141,
        142,
        143,
        144,
        145,
        146,
        147,
        148,
        149,
        150,
        151,
        152,
        153,
        154,
        155,
        156,
        157,
        158,
        159,
        160,
        161,
        162,
        163,
        164,
        165,
        166,
        167,
        168,
        169,
        170,
        171,
        172,
        173,
        174,
        175,
        176,
        177,
        178,
        179,
        180,
        181,
        182,
        183,
        184,
        185,
        186,
        187,
        188,
        189,
        190,
        191,
        192,
        193,
        194,
        195,
        196,
        197,
        198,
        199,
        200,
        201,
        202,
        203,
        204,
        205,
        206,
        207,
        208,
        209,
        210,
        211,
        212,
        213,
        214,
        215,
        216,
        217,
        218,
        219,
        220,
        221,
        222,
        223,
        224,
        225,
        226,
        227,
        228,
        229,
        230,
        231,
        232,
        233,
        234,
        235,
        236,
        237,
        238,
        239,
        240,
        241,
        242,
        243,
        244,
        245,
        246,
        247,
        248,
        249,
        250,
        251,
        252,
        253,
        254,
        255,
        256,
        257,
        258,
        259,
        260,
        261,
        262,
        263,
        264,
        265,
        266,
        267,
        268,
        269,
        270,
        271,
        272,
        273,
        274,
        275,
        276,
        277,
        278,
        279,
        280,
        281,
        282,
        283,
        284,
        285,
        286,
        287,
        288
      ],
      "AcquisitionTime": [
        "093659.757500",
        "093700.757500",
        "093701.757500",
        "093702.757500",
        "093703.757500",
        "093704.757500",
        "093705.757500",
        "093706.757500",
        "093707.757500",
        "093708.757500",
        "093709.757500",
        "093710.757500",
        "093711.757500",
        "093712.757500",
        "093713.757500",
        "093714.757500",
        "093715.757500",
        "093716.757500",
        "093717.757500",
        "093718.757500",
        "093719.757500",
        "093720.757500",
        "093721.757500",
        "093722.757500",
        "093723.757500",
        "093724.757500",
        "093725.757500",
        "093726.757500",
        "093727.757500",
        "093728.757500",
        "093729.757500",
        "093730.757500",
        "093731.757500",
        "093732.757500",
        "093733.757500",
        "093734.757500",
        "093735.757500",
        "093736.757500",
        "093737.757500",
        "093738.757500",
        "093739.757500",
        "093740.757500",
        "093741.757500",
        "093742.757500",
        "093743.757500",
        "093744.757500",
        "093745.757500",
        "093746.757500",
        "093747.757500",
        "093748.757500",
        "093749.757500",
        "093750.757500",
        "093751.757500",
        "093752.757500",
        "093753.757500",
        "093754.757500",
        "093755.757500",
        "093756.757500",
        "093757.757500",
        "093758.757500",
        "093759.757500",
        "093800.757500",
        "093801.757500",
        "093802.757500",
        "093803.757500",
        "093804.757500",
        "093805.757500",
        "093806.757500",
        "093807.757500",
        "093808.757500",
        "093809.757500",
        "093810.757500",
        "093811.757500",
        "093812.757500",
        "093813.757500",
        "093814.757500",
        "093815.757500",
        "093816.757500",
        "093817.757500",
        "093818.757500",
        "093819.757500",
        "093820.757500",
        "093821.757500",
        "093822.757500",
        "093823.757500",
        "093824.757500",
        "093825.757500",
        "093826.757500",
        "093827.757500",
        "093828.757500",
        "093829.757500",
        "093830.757500",
        "093831.757500",
        "093832.757500",
        "093833.757500",
        "093834.757500",
        "093835.757500",
        "093836.757500",
        "093837.757500",
        "093838.757500",
        "093839.757500",
        "093840.757500",
        "093841.757500",
        "093842.757500",
        "093843.757500",
        "093844.757500",
        "093845.757500",
        "093846.757500",
        "093847.757500",
        "093848.757500",
        "093849.757500",
        "093850.757500",
        "093851.757500",
        "093852.757500",
        "093853.757500",
        "093854.757500",
        "093855.757500",
        "093856.757500",
        "093857.757500",
        "093858.757500",
        "093859.757500",
        "093900.757500",
        "093901.757500",
        "093902.757500",
        "093903.757500",
        "093904.757500",
        "093905.757500",
        "093906.757500",
        "093907.757500",
        "093908.757500",
        "093909.757500",
        "093910.757500",
        "093911.757500",
        "093912.757500",
        "093913.757500",
        "093914.757500",
        "093915.757500",
        "093916.757500",
        "093917.757500",
        "093918.757500",
        "093919.757500",
        "093920.757500",
        "093921.757500",
        "093922.757500",
        "093923.757500",
        "093924.757500",
        "093925.757500",
        "093926.757500",
        "093927.757500",
        "093928.757500",
        "093929.757500",
        "093930.757500",
        "093931.757500",
        "093932.757500",
        "093933.757500",
        "093934.757500",
        "093935.757500",
        "093936.757500",
        "093937.757500",
        "093938.757500",
        "093939.757500",
        "093940.757500",
        "093941.757500",
        "093942.757500",
        "093943.757500",
        "093944.757500",
        "093945.757500",
        "093946.757500",
        "093947.757500",
        "093948.757500",
        "093949.757500",
        "093950.757500",
        "093951.757500",
        "093952.757500",
        "093953.757500",
        "093954.757500",
        "093955.757500",
        "093956.757500",
        "093957.757500",
        "093958.757500",
        "093959.757500",
        "094000.757500",
        "094001.757500",
        "094002.757500",
        "094003.757500",
        "094004.757500",
        "094005.757500",
        "094006.757500",
        "094007.757500",
        "094008.757500",
        "094009.757500",
        "094010.757500",
        "094011.757500",
        "094012.757500",
        "094013.757500",
        "094014.757500",
        "094015.757500",
        "094016.757500",
        "094017.757500",
        "094018.757500",
        "094019.757500",
        "094020.757500",
        "094021.757500",
        "094022.757500",
        "094023.757500",
        "094024.757500",
        "094025.757500",
        "094026.757500",
        "094027.757500",
        "094028.757500",
        "094029.757500",
        "094030.757500",
        "094031.757500",
        "094032.757500",
        "094033.757500",
        "094034.757500",
        "094035.757500",
        "094036.757500",
        "094037.757500",
        "094038.757500",
        "094039.757500",
        "094040.757500",
        "094041.757500",
        "094042.757500",
        "094043.757500",
        "094044.757500",
        "094045.757500",
        "094046.757500",
        "094047.757500",
        "094048.757500",
        "094049.757500",
        "094050.757500",
        "094051.757500",
        "094052.757500",
        "094053.757500",
        "094054.757500",
        "094055.757500",
        "094056.757500",
        "094057.757500",
        "094058.757500",
        "094059.757500",
        "094100.757500",
        "094101.757500",
        "094102.757500",
        "094103.757500",
        "094104.757500",
        "094105.757500",
        "094106.757500",
        "094107.757500",
        "094108.757500",
        "094109.757500",
        "094110.757500",
        "094111.757500",
        "094112.757500",
        "094113.757500",
        "094114.757500",
        "094115.757500",
        "094116.757500",
        "094117.757500",
        "094118.757500",
        "094119.757500",
        "094120.757500",
        "094121.757500",
        "094122.757500",
        "094123.757500",
        "094124.757500",
        "094125.757500",
        "094126.757500",
        "094127.757500",
        "094128.757500",
        "094129.757500",
        "094130.757500",
        "094131.757500",
        "094132.757500",
        "094133.757500",
        "094134.757500",
        "094135.757500",
        "094136.757500",
        "094137.757500",
        "094138.757500",
        "094139.757500",
        "094140.757500",
        "094141.757500",
        "094142.757500",
        "094143.757500",
        "094144.757500",
        "094145.757500",
        "094146.757500"
      ],
      "ContentTime": [
        "093700.935000",
        "093701.772000",
        "093702.763000",
        "093703.812000",
        "093704.768000",
        "093705.772000",
        "093706.762000",
        "093707.762000",
        "093708.809000",
        "093709.789000",
        "093710.816000",
        "093711.775000",
        "093712.750000",
        "093713.763000",
        "093714.752000",
        "093715.753000",
        "093716.814000",
        "093717.753000",
        "093718.777000",
        "093719.761000",
        "093720.757000",
        "093721.779000",
        "093722.747000",
        "093723.761000",
        "093724.753000",
        "093725.767000",
        "093726.757000",
        "093727.755000",
        "093728.770000",
        "093729.726000",
        "093730.775000",
        "093731.764000",
        "093732.806000",
        "093733.778000",
        "093734.741000",
        "093735.775000",
        "093736.750000",
        "093737.786000",
        "093738.766000",
        "093739.751000",
        "093740.761000",
        "093741.762000",
        "093742.760000",
        "093743.748000",
        "093744.836000",
        "093745.765000",
        "093746.806000",
        "093747.750000",
        "093748.773000",
        "093749.783000",
        "093750.795000",
        "093751.777000",
        "093752.770000",
        "093753.791000",
        "093754.834000",
        "093755.779000",
        "093756.765000",
        "093757.765000",
        "093758.790000",
        "093759.774000",
        "093800.772000",
        "093801.771000",
        "093802.752000",
        "093803.749000",
        "093804.767000",
        "093805.754000",
        "093806.730000",
        "093807.778000",
        "093808.761000",
        "093809.789000",
        "093810.751000",
        "093811.766000",
        "093812.775000",
        "093813.788000",
        "093814.774000",
        "093815.774000",
        "093816.768000",
        "093817.772000",
        "093818.781000",
        "093819.773000",
        "093820.786000",
        "093821.752000",
        "093822.734000",
        "093823.777000",
        "093824.774000",
        "093825.759000",
        "093826.758000",
        "093827.787000",
        "093828.768000",
        "093829.786000",
        "093830.758000",
        "093831.757000",
        "093832.764000",
        "093833.752000",
        "093834.736000",
        "093835.785000",
        "093836.739000",
        "093837.758000",
        "093838.766000",
        "093839.783000",
        "093840.755000",
        "093841.783000",
        "093842.786000",
        "093843.790000",
        "093844.738000",
        "093845.846000",
        "093846.757000",
        "093847.783000",
        "093848.772000",
        "093849.757000",
        "093850.809000",
        "093851.781000",
        "093852.786000",
        "093853.751000",
        "093854.769000",
        "093855.755000",
        "093856.760000",
        "093857.773000",
        "093858.779000",
        "093859.767000",
        "093900.808000",
        "093901.779000",
        "093902.836000",
        "093903.788000",
        "093904.771000",
        "093905.772000",
        "093906.755000",
        "093907.771000",
        "093908.779000",
        "093909.777000",
        "093910.800000",
        "093911.791000",
        "093912.775000",
        "093913.768000",
        "093914.776000",
        "093915.775000",
        "093916.788000",
        "093917.756000",
        "093918.771000",
        "093919.750000",
        "093920.775000",
        "093921.754000",
        "093922.763000",
        "093923.788000",
        "093924.766000",
        "093925.775000",
        "093926.758000",
        "093927.766000",
        "093928.809000",
        "093929.769000",
        "093930.752000",
        "093931.792000",
        "093932.794000",
        "093933.786000",
        "093934.820000",
        "093935.779000",
        "093936.767000",
        "093937.764000",
        "093938.773000",
        "093939.798000",
        "093940.773000",
        "093941.775000",
        "093942.761000",
        "093943.793000",
        "093944.805000",
        "093945.848000",
        "093946.748000",
        "093947.790000",
        "093948.779000",
        "093949.773000",
        "093950.776000",
        "093951.759000",
        "093952.771000",
        "093953.779000",
        "093954.790000",
        "093955.781000",
        "093956.772000",
        "093957.781000",
        "093958.815000",
        "093959.787000",
        "094000.762000",
        "094001.810000",
        "094002.823000",
        "094003.792000",
        "094004.788000",
        "094005.783000",
        "094006.764000",
        "094007.845000",
        "094008.761000",
        "094009.780000",
        "094010.789000",
        "094011.845000",
        "094012.795000",
        "094013.801000",
        "094014.848000",
        "094015.770000",
        "094016.806000",
        "094017.774000",
        "094018.761000",
        "094019.762000",
        "094020.809000",
        "094021.766000",
        "094022.784000",
        "094023.788000",
        "094024.783000",
        "094025.788000",
        "094026.785000",
        "094027.813000",
        "094028.815000",
        "094029.780000",
        "094030.781000",
        "094031.791000",
        "094032.767000",
        "094033.864000",
        "094034.773000",
        "094035.922000",
        "094036.767000",
        "094037.795000",
        "094038.845000",
        "094039.801000",
        "094040.792000",
        "094041.790000",
        "094042.766000",
        "094043.763000",
        "094044.816000",
        "094045.764000",
        "094046.783000",
        "094047.773000",
        "094048.791000",
        "094049.785000",
        "094050.776000",
        "094051.797000",
        "094052.768000",
        "094053.781000",
        "094054.776000",
        "094055.755000",
        "094056.819000",
        "094057.782000",
        "094058.752000",
        "094059.771000",
        "094100.772000",
        "094101.789000",
        "094102.777000",
        "094103.765000",
        "094104.781000",
        "094105.788000",
        "094106.768000",
        "094107.811000",
        "094108.811000",
        "094109.768000",
        "094110.803000",
        "094111.780000",
        "094112.776000",
        "094113.794000",
        "094114.756000",
        "094115.756000",
        "094116.777000",
        "094117.770000",
        "094118.770000",
        "094119.753000",
        "094120.752000",
        "094121.742000",
        "094122.758000",
        "094123.766000",
        "094124.754000",
        "094125.810000",
        "094126.760000",
        "094127.792000",
        "094128.757000",
        "094129.777000",
        "094130.805000",
        "094131.772000",
        "094132.758000",
        "094133.783000",
        "094134.775000",
        "094135.796000",
        "094136.805000",
        "094137.843000",
        "094138.753000",
        "094139.757000",
        "094140.780000",
        "094141.773000",
        "094142.786000",
        "094143.793000",
        "094144.786000",
        "094145.745000",
        "094146.774000",
        "094147.806000"
      ],
      "InstanceCreationTime": [
        "093700.935000",
        "093701.772000",
        "093702.763000",
        "093703.812000",
        "093704.768000",
        "093705.772000",
        "093706.762000",
        "093707.762000",
        "093708.809000",
        "093709.789000",
        "093710.816000",
        "093711.775000",
        "093712.750000",
        "093713.763000",
        "093714.752000",
        "093715.753000",
        "093716.814000",
        "093717.753000",
        "093718.777000",
        "093719.761000",
        "093720.757000",
        "093721.779000",
        "093722.747000",
        "093723.761000",
        "093724.753000",
        "093725.767000",
        "093726.757000",
        "093727.755000",
        "093728.770000",
        "093729.726000",
        "093730.775000",
        "093731.764000",
        "093732.806000",
        "093733.778000",
        "093734.741000",
        "093735.775000",
        "093736.750000",
        "093737.786000",
        "093738.766000",
        "093739.751000",
        "093740.761000",
        "093741.762000",
        "093742.760000",
        "093743.748000",
        "093744.836000",
        "093745.765000",
        "093746.806000",
        "093747.750000",
        "093748.773000",
        "093749.783000",
        "093750.795000",
        "093751.777000",
        "093752.770000",
        "093753.791000",
        "093754.834000",
        "093755.779000",
        "093756.765000",
        "093757.765000",
        "093758.790000",
        "093759.774000",
        "093800.772000",
        "093801.771000",
        "093802.752000",
        "093803.749000",
        "093804.767000",
        "093805.754000",
        "093806.730000",
        "093807.778000",
        "093808.761000",
        "093809.789000",
        "093810.751000",
        "093811.766000",
        "093812.775000",
        "093813.788000",
        "093814.774000",
        "093815.774000",
        "093816.768000",
        "093817.772000",
        "093818.781000",
        "093819.773000",
        "093820.786000",
        "093821.752000",
        "093822.734000",
        "093823.777000",
        "093824.774000",
        "093825.759000",
        "093826.758000",
        "093827.787000",
        "093828.768000",
        "093829.786000",
        "093830.758000",
        "093831.757000",
        "093832.764000",
        "093833.752000",
        "093834.736000",
        "093835.785000",
        "093836.739000",
        "093837.758000",
        "093838.766000",
        "093839.783000",
        "093840.755000",
        "093841.783000",
        "093842.786000",
        "093843.790000",
        "093844.738000",
        "093845.846000",
        "093846.757000",
        "093847.783000",
        "093848.772000",
        "093849.757000",
        "093850.809000",
        "093851.781000",
        "093852.786000",
        "093853.751000",
        "093854.769000",
        "093855.755000",
        "093856.760000",
        "093857.773000",
        "093858.779000",
        "093859.767000",
        "093900.808000",
        "093901.779000",
        "093902.836000",
        "093903.788000",
        "093904.771000",
        "093905.772000",
        "093906.755000",
        "093907.771000",
        "093908.779000",
        "093909.777000",
        "093910.800000",
        "093911.791000",
        "093912.775000",
        "093913.768000",
        "093914.776000",
        "093915.775000",
        "093916.788000",
        "093917.756000",
        "093918.771000",
        "093919.750000",
        "093920.775000",
        "093921.754000",
        "093922.763000",
        "093923.788000",
        "093924.766000",
        "093925.775000",
        "093926.758000",
        "093927.766000",
        "093928.809000",
        "093929.769000",
        "093930.752000",
        "093931.792000",
        "093932.794000",
        "093933.786000",
        "093934.820000",
        "093935.779000",
        "093936.767000",
        "093937.764000",
        "093938.773000",
        "093939.798000",
        "093940.773000",
        "093941.775000",
        "093942.761000",
        "093943.793000",
        "093944.805000",
        "093945.848000",
        "093946.748000",
        "093947.790000",
        "093948.779000",
        "093949.773000",
        "093950.776000",
        "093951.759000",
        "093952.771000",
        "093953.779000",
        "093954.790000",
        "093955.781000",
        "093956.772000",
        "093957.781000",
        "093958.815000",
        "093959.787000",
        "094000.762000",
        "094001.810000",
        "094002.823000",
        "094003.792000",
        "094004.788000",
        "094005.783000",
        "094006.764000",
        "094007.845000",
        "094008.761000",
        "094009.780000",
        "094010.789000",
        "094011.845000",
        "094012.795000",
        "094013.801000",
        "094014.848000",
        "094015.770000",
        "094016.806000",
        "094017.774000",
        "094018.761000",
        "094019.762000",
        "094020.809000",
        "094021.766000",
        "094022.784000",
        "094023.788000",
        "094024.783000",
        "094025.788000",
        "094026.785000",
        "094027.813000",
        "094028.815000",
        "094029.780000",
        "094030.781000",
        "094031.791000",
        "094032.767000",
        "094033.864000",
        "094034.773000",
        "094035.922000",
        "094036.767000",
        "094037.795000",
        "094038.845000",
        "094039.801000",
        "094040.792000",
        "094041.790000",
        "094042.766000",
        "094043.763000",
        "094044.816000",
        "094045.764000",
        "094046.783000",
        "094047.773000",
        "094048.791000",
        "094049.785000",
        "094050.776000",
        "094051.797000",
        "094052.768000",
        "094053.781000",
        "094054.776000",
        "094055.755000",
        "094056.819000",
        "094057.782000",
        "094058.752000",
        "094059.771000",
        "094100.772000",
        "094101.789000",
        "094102.777000",
        "094103.765000",
        "094104.781000",
        "094105.788000",
        "094106.768000",
        "094107.811000",
        "094108.811000",
        "094109.768000",
        "094110.803000",
        "094111.780000",
        "094112.776000",
        "094113.794000",
        "094114.756000",
        "094115.756000",
        "094116.777000",
        "094117.770000",
        "094118.770000",
        "094119.753000",
        "094120.752000",
        "094121.742000",
        "094122.758000",
        "094123.766000",
        "094124.754000",
        "094125.810000",
        "094126.760000",
        "094127.792000",
        "094128.757000",
        "094129.777000",
        "094130.805000",
        "094131.772000",
        "094132.758000",
        "094133.783000",
        "094134.775000",
        "094135.796000",
        "094136.805000",
        "094137.843000",
        "094138.753000",
        "094139.757000",
        "094140.780000",
        "094141.773000",
        "094142.786000",
        "094143.793000",
        "094144.786000",
        "094145.745000",
        "094146.774000",
        "094147.806000"
      ],
      "InstanceNumber": [
        1,
        2,
        3,
        4,
        5,
        6,
        7,
        8,
        9,
        10,
        11,
        12,
        13,
        14,
        15,
        16,
        17,
        18,
        19,
        20,
        21,
        22,
        23,
        24,
        25,
        26,
        27,
        28,
        29,
        30,
        31,
        32,
        33,
        34,
        35,
        36,
        37,
        38,
        39,
        40,
        41,
        42,
        43,
        44,
        45,
        46,
        47,
        48,
        49,
        50,
        51,
        52,
        53,
        54,
        55,
        56,
        57,
        58,
        59,
        60,
        61,
        62,
        63,
        64,
        65,
        66,
        67,
        68,
        69,
        70,
        71,
        72,
        73,
        74,
        75,
        76,
        77,
        78,
        79,
        80,
        81,
        82,
        83,
        84,
        85,
        86,
        87,
        88,
        89,
        90,
        91,
        92,
        93,
        94,
        95,
        96,
        97,
        98,
        99,
        100,
        101,
        102,
        103,
        104,
        105,
        106,
        107,
        108,
        109,
        110,
        111,
        112,
        113,
        114,
        115,
        116,
        117,
        118,
        119,
        120,
        121,
        122,
        123,
        124,
        125,
        126,
        127,
        128,
        129,
        130,
        131,
        132,
        133,
        134,
        135,
        136,
        137,
        138,
        139,
        140,
        141,
        142,
        143,
        144,
        145,
        146,
        147,
        148,
        149,
        150,
        151,
        152,
        153,
        154,
