{
  "AcquisitionMatrixPE": 96,
  "AcquisitionNumber": 1,
  "BandwidthPerPixelPhaseEncode": 18.939,
  "BaseResolution": 96,
  "BodyPartExamined": "BRAIN",
  "ConsistencyInfo": "N4_VE11C_LATEST_20160120",
  "ConversionSoftware": "dcm2niix",
  "ConversionSoftwareVersion": "v1.0.20171215 (OpenJPEG build) GCC6.3.0",
  "DerivedVendorReportedEchoSpacing": 0.000550011,
  "DeviceSerialNumber": "66112",
  "DwellTime": 2.2e-06,
  "EchoTime": 0.033,
  "EchoTrainLength": 96,
  "EffectiveEchoSpacing": 0.000550011,
  "FlipAngle": 59,
  "ImageOrientationPatientDICOM": [
    0.998137,
    0.059023,
    0.0154548,
    -0.0593003,
    0.998075,
    0.0181458
  ],
  "ImageType": [
    "ORIGINAL",
    "PRIMARY",
    "FMRI",
    "NONE",
    "ND",
    "NORM",
    "MOSAIC"
  ],
  "InPlanePhaseEncodingDirectionDICOM": "COL",
  "InstitutionAddress": "Maynard_3_Hanover_NH_US_03755",
  "InstitutionName": "Dartmouth_College_-_PBS",
  "InstitutionalDepartmentName": "Department",
  "MRAcquisitionType": "2D",
  "MagneticFieldStrength": 3,
  "Manufacturer": "Siemens",
  "ManufacturersModelName": "Prisma",
  "Modality": "MR",
  "MultibandAccelerationFactor": 4,
  "PartialFourier": 1,
  "PatientPosition": "HFS",
  "PercentPhaseFOV": 100,
  "PhaseEncodingDirection": "j-",
  "PhaseEncodingSteps": 96,
  "PhaseResolution": 1,
  "PixelBandwidth": 2365,
  "ProcedureStepDescription": "Gobbini_Matteo_1038_hyperface",
  "ProtocolName": "func_run-99_task-visualmemory",
  "PulseSequenceDetails": "%SiemensSeq%_ep2d_bold",
  "ReceiveCoilActiveElements": "HEA;HEP",
  "ReceiveCoilName": "Head_32",
  "ReconMatrixPE": 96,
  "RepetitionTime": 1,
  "SAR": 0.0564531,
  "ScanOptions": "FS",
  "ScanningSequence": "EP",
  "SequenceName": "_epfid2d1_96",
  "SequenceVariant": "SK",
  "SeriesDescription": "func_run-99_task-visualmemory",
  "SeriesNumber": 63,
  "ShimSetting": [
    4141,
    -7709,
    -7312,
    657,
    19,
    71,
    98,
    31
  ],
  "SliceThickness": 2.5,
  "SliceTiming": [
    0.7325,
    0,
    0.4875,
    0.08,
    0.57,
    0.1625,
    0.6525,
    0.325,
    0.815,
    0.4075,
    0.8975,
    0.245,
    0.7325,
    0,
    0.4875,
    0.08,
    0.57,
    0.1625,
    0.6525,
    0.325,
    0.815,
    0.4075,
    0.8975,
    0.245,
    0.7325,
    0,
    0.4875,
    0.08,
    0.57,
    0.1625,
    0.6525,
    0.325,
    0.815,
    0.4075,
    0.8975,
    0.245,
    0.7325,
    0,
    0.4875,
    0.08,
    0.57,
    0.1625,
    0.6525,
    0.325,
    0.815,
    0.4075,
    0.8975,
    0.245
  ],
  "SoftwareVersions": "syngo_MR_E11",
  "SpacingBetweenSlices": 2.5,
  "StationName": "AWP66112",
  "TotalReadoutTime": 0.0522511,
  "TxRefAmp": 256.689,
  "time": {
    "samples": {
      "AcquisitionNumber": [
        1,
        2,
        3,
        4,
        5,
        6,
        7,
        8,
        9,
        10,
        11,
        12,
        13,
        14,
        15,
        16,
        17,
        18,
        19,
        20,
        21,
        22,
        23,
        24,
        25,
        26,
        27,
        28,
        29,
        30,
        31,
        32,
        33,
        34,
        35,
        36,
        37,
        38,
        39,
        40,
        41,
        42,
        43,
        44,
        45,
        46,
        47,
        48,
        49,
        50,
        51,
        52,
        53,
        54,
        55,
        56,
        57,
        58,
        59,
        60,
        61,
        62,
        63,
        64,
        65,
        66,
        67,
        68,
        69,
        70,
        71,
        72,
        73,
        74,
        75,
        76,
        77,
        78,
        79,
        80,
        81,
        82,
        83,
        84,
        85,
        86,
        87,
        88,
        89,
        90,
        91,
        92,
        93,
        94,
        95,
        96,
        97,
        98,
        99,
        100,
        101,
        102,
        103,
        104,
        105,
        106,
        107,
        108,
        109,
        110,
        111,
        112,
        113,
        114,
        115,
        116,
        117,
        118,
        119,
        120,
        121,
        122,
        123,
        124,
        125,
        126,
        127,
        128,
        129,
        130,
        131,
        132,
        133,
        134,
        135,
        136,
        137,
        138,
        139,
        140,
        141,
        142,
        143,
        144,
        145,
        146,
        147,
        148,
        149,
        150,
        151,
        152,
        153,
        154,
        155,
        156,
        157,
        158,
        159,
        160,
        161,
        162,
        163,
        164,
        165,
        166,
        167,
        168,
        169,
        170,
        171,
        172,
        173,
        174,
        175,
        176,
        177,
        178,
        179,
        180,
        181,
        182,
        183,
        184,
        185,
        186,
        187,
        188,
        189,
        190,
        191,
        192,
        193,
        194,
        195,
        196,
        197,
        198,
        199,
        200,
        201,
        202,
        203,
        204,
        205,
        206,
        207,
        208,
        209,
        210,
        211,
        212,
        213,
        214,
        215,
        216,
        217,
        218,
        219,
        220,
        221,
        222,
        223,
        224,
        225,
        226,
        227,
        228,
        229,
        230,
        231,
        232,
        233,
        234,
        235,
        236,
        237,
        238,
        239,
        240,
        241,
        242,
        243,
        244,
        245,
        246,
        247,
        248,
        249,
        250,
        251,
        252,
        253,
        254,
        255,
        256,
        257,
        258,
        259,
        260,
        261,
        262,
        263,
        264,
        265,
        266,
        267,
        268,
        269,
        270,
        271,
        272,
        273,
        274,
        275,
        276,
        277,
        278,
        279,
        280,
        281,
        282,
        283,
        284,
        285,
        286,
        287,
        288
      ],
      "AcquisitionTime": [
        "122007.445000",
        "122008.445000",
        "122009.445000",
        "122010.445000",
        "122011.445000",
        "122012.445000",
        "122013.445000",
        "122014.445000",
        "122015.445000",
        "122016.445000",
        "122017.445000",
        "122018.445000",
        "122019.445000",
        "122020.445000",
        "122021.445000",
        "122022.445000",
        "122023.445000",
        "122024.445000",
        "122025.445000",
        "122026.445000",
        "122027.445000",
        "122028.445000",
        "122029.445000",
        "122030.445000",
        "122031.445000",
        "122032.445000",
        "122033.445000",
        "122034.445000",
        "122035.445000",
        "122036.445000",
        "122037.445000",
        "122038.445000",
        "122039.445000",
        "122040.445000",
        "122041.445000",
        "122042.445000",
        "122043.445000",
        "122044.445000",
        "122045.445000",
        "122046.445000",
        "122047.445000",
        "122048.445000",
        "122049.445000",
        "122050.445000",
        "122051.445000",
        "122052.445000",
        "122053.445000",
        "122054.445000",
        "122055.445000",
        "122056.445000",
        "122057.445000",
        "122058.445000",
        "122059.445000",
        "122100.445000",
        "122101.445000",
        "122102.445000",
        "122103.445000",
        "122104.445000",
        "122105.445000",
        "122106.445000",
        "122107.445000",
        "122108.445000",
        "122109.445000",
        "122110.445000",
        "122111.445000",
        "122112.445000",
        "122113.445000",
        "122114.445000",
        "122115.445000",
        "122116.445000",
        "122117.445000",
        "122118.445000",
        "122119.445000",
        "122120.445000",
        "122121.445000",
        "122122.445000",
        "122123.445000",
        "122124.445000",
        "122125.445000",
        "122126.445000",
        "122127.445000",
        "122128.445000",
        "122129.445000",
        "122130.445000",
        "122131.445000",
        "122132.445000",
        "122133.445000",
        "122134.445000",
        "122135.445000",
        "122136.445000",
        "122137.445000",
        "122138.445000",
        "122139.445000",
        "122140.445000",
        "122141.445000",
        "122142.445000",
        "122143.445000",
        "122144.445000",
        "122145.445000",
        "122146.445000",
        "122147.445000",
        "122148.445000",
        "122149.445000",
        "122150.445000",
        "122151.445000",
        "122152.445000",
        "122153.445000",
        "122154.445000",
        "122155.445000",
        "122156.445000",
        "122157.445000",
        "122158.445000",
        "122159.445000",
        "122200.445000",
        "122201.445000",
        "122202.445000",
        "122203.445000",
        "122204.445000",
        "122205.445000",
        "122206.445000",
        "122207.445000",
        "122208.445000",
        "122209.445000",
        "122210.445000",
        "122211.445000",
        "122212.445000",
        "122213.445000",
        "122214.445000",
        "122215.445000",
        "122216.445000",
        "122217.445000",
        "122218.445000",
        "122219.445000",
        "122220.445000",
        "122221.445000",
        "122222.445000",
        "122223.445000",
        "122224.445000",
        "122225.445000",
        "122226.445000",
        "122227.445000",
        "122228.445000",
        "122229.445000",
        "122230.445000",
        "122231.445000",
        "122232.445000",
        "122233.445000",
        "122234.445000",
        "122235.445000",
        "122236.445000",
        "122237.445000",
        "122238.445000",
        "122239.445000",
        "122240.445000",
        "122241.445000",
        "122242.445000",
        "122243.445000",
        "122244.445000",
        "122245.445000",
        "122246.445000",
        "122247.445000",
        "122248.445000",
        "122249.445000",
        "122250.445000",
        "122251.445000",
        "122252.445000",
        "122253.445000",
        "122254.445000",
        "122255.445000",
        "122256.445000",
        "122257.445000",
        "122258.445000",
        "122259.445000",
        "122300.445000",
        "122301.445000",
        "122302.445000",
        "122303.445000",
        "122304.445000",
        "122305.445000",
        "122306.445000",
        "122307.445000",
        "122308.445000",
        "122309.445000",
        "122310.445000",
        "122311.445000",
        "122312.445000",
        "122313.445000",
        "122314.445000",
        "122315.445000",
        "122316.445000",
        "122317.445000",
        "122318.445000",
        "122319.445000",
        "122320.445000",
        "122321.445000",
        "122322.445000",
        "122323.445000",
        "122324.445000",
        "122325.445000",
        "122326.445000",
        "122327.445000",
        "122328.445000",
        "122329.445000",
        "122330.445000",
        "122331.445000",
        "122332.445000",
        "122333.445000",
        "122334.445000",
        "122335.445000",
        "122336.445000",
        "122337.445000",
        "122338.445000",
        "122339.445000",
        "122340.445000",
        "122341.445000",
        "122342.445000",
        "122343.445000",
        "122344.445000",
        "122345.445000",
        "122346.445000",
        "122347.445000",
        "122348.445000",
        "122349.445000",
        "122350.445000",
        "122351.445000",
        "122352.445000",
        "122353.445000",
        "122354.445000",
        "122355.445000",
        "122356.445000",
        "122357.445000",
        "122358.445000",
        "122359.445000",
        "122400.445000",
        "122401.445000",
        "122402.445000",
        "122403.445000",
        "122404.445000",
        "122405.445000",
        "122406.445000",
        "122407.445000",
        "122408.445000",
        "122409.445000",
        "122410.445000",
        "122411.445000",
        "122412.445000",
        "122413.445000",
        "122414.445000",
        "122415.445000",
        "122416.445000",
        "122417.445000",
        "122418.445000",
        "122419.445000",
        "122420.445000",
        "122421.445000",
        "122422.445000",
        "122423.445000",
        "122424.445000",
        "122425.445000",
        "122426.445000",
        "122427.445000",
        "122428.445000",
        "122429.445000",
        "122430.445000",
        "122431.445000",
        "122432.445000",
        "122433.445000",
        "122434.445000",
        "122435.445000",
        "122436.445000",
        "122437.445000",
        "122438.445000",
        "122439.445000",
        "122440.445000",
        "122441.445000",
        "122442.445000",
        "122443.445000",
        "122444.445000",
        "122445.445000",
        "122446.445000",
        "122447.445000",
        "122448.445000",
        "122449.445000",
        "122450.445000",
        "122451.445000",
        "122452.445000",
        "122453.445000",
        "122454.445000"
      ],
      "ContentTime": [
        "122008.952000",
        "122009.823000",
        "122010.818000",
        "122011.840000",
        "122012.825000",
        "122013.817000",
        "122014.874000",
        "122015.835000",
        "122016.819000",
        "122017.847000",
        "122018.879000",
        "122019.823000",
        "122020.798000",
        "122021.801000",
        "122022.807000",
        "122023.794000",
        "122024.832000",
        "122025.824000",
        "122026.815000",
        "122027.803000",
        "122028.808000",
        "122029.814000",
        "122030.814000",
        "122031.837000",
        "122032.835000",
        "122033.837000",
        "122034.801000",
        "122035.793000",
        "122036.824000",
        "122037.838000",
        "122038.814000",
        "122039.807000",
        "122040.814000",
        "122041.805000",
        "122042.883000",
        "122043.830000",
        "122044.819000",
        "122045.813000",
        "122046.790000",
        "122047.801000",
        "122048.813000",
        "122049.806000",
        "122050.818000",
        "122051.813000",
        "122052.792000",
        "122053.793000",
        "122054.841000",
        "122055.836000",
        "122056.788000",
        "122057.788000",
        "122058.825000",
        "122059.842000",
        "122100.803000",
        "122101.815000",
        "122102.821000",
        "122103.819000",
        "122104.816000",
        "122105.807000",
        "122106.832000",
        "122107.843000",
        "122108.807000",
        "122109.893000",
        "122110.862000",
        "122111.815000",
        "122112.788000",
        "122113.811000",
        "122114.811000",
        "122115.837000",
        "122116.831000",
        "122117.838000",
        "122118.875000",
        "122119.836000",
        "122120.853000",
        "122121.802000",
        "122122.828000",
        "122123.871000",
        "122124.848000",
        "122125.807000",
        "122126.802000",
        "122127.820000",
        "122128.816000",
        "122129.807000",
        "122130.869000",
        "122131.820000",
        "122132.814000",
        "122133.797000",
        "122134.884000",
        "122135.782000",
        "122136.841000",
        "122137.841000",
        "122138.831000",
        "122139.839000",
        "122140.817000",
        "122141.820000",
        "122142.824000",
        "122143.816000",
        "122144.796000",
        "122145.807000",
        "122146.811000",
        "122147.842000",
        "122148.828000",
        "122149.813000",
        "122150.814000",
        "122151.839000",
        "122152.830000",
        "122153.887000",
        "122154.845000",
        "122155.817000",
        "122156.814000",
        "122157.808000",
        "122158.827000",
        "122159.824000",
        "122200.839000",
        "122201.812000",
        "122202.828000",
        "122203.785000",
        "122204.811000",
        "122205.839000",
        "122206.816000",
        "122207.810000",
        "122208.836000",
        "122209.851000",
        "122210.839000",
        "122211.825000",
        "122212.807000",
        "122213.848000",
        "122214.815000",
        "122215.802000",
        "122216.850000",
        "122217.860000",
        "122218.821000",
        "122219.807000",
        "122220.808000",
        "122221.811000",
        "122222.811000",
        "122223.815000",
        "122224.857000",
        "122225.834000",
        "122226.820000",
        "122227.810000",
        "122228.833000",
        "122229.811000",
        "122230.885000",
        "122231.824000",
        "122232.805000",
        "122233.828000",
        "122234.815000",
        "122235.862000",
        "122236.836000",
        "122237.823000",
        "122238.814000",
        "122239.849000",
        "122240.863000",
        "122241.794000",
        "122242.823000",
        "122243.839000",
        "122244.833000",
        "122245.810000",
        "122246.823000",
        "122247.821000",
        "122248.837000",
        "122249.824000",
        "122250.825000",
        "122251.819000",
        "122252.818000",
        "122253.815000",
        "122254.805000",
        "122255.797000",
        "122256.826000",
        "122257.823000",
        "122258.842000",
        "122259.900000",
        "122300.832000",
        "122301.826000",
        "122302.818000",
        "122303.808000",
        "122304.827000",
        "122305.816000",
        "122306.849000",
        "122307.822000",
        "122308.839000",
        "122309.902000",
        "122310.815000",
        "122311.868000",
        "122312.859000",
        "122313.831000",
        "122314.844000",
        "122315.843000",
        "122316.798000",
        "122317.810000",
        "122318.845000",
        "122319.810000",
        "122320.823000",
        "122321.803000",
        "122322.826000",
        "122323.832000",
        "122324.837000",
        "122325.808000",
        "122326.827000",
        "122327.831000",
        "122328.804000",
        "122329.806000",
        "122330.839000",
        "122331.789000",
        "122332.813000",
        "122333.809000",
        "122334.846000",
        "122335.846000",
        "122336.832000",
        "122337.808000",
        "122338.803000",
        "122339.840000",
        "122340.828000",
        "122341.855000",
        "122342.823000",
        "122343.823000",
        "122344.772000",
        "122345.867000",
        "122346.799000",
        "122347.820000",
        "122348.820000",
        "122349.820000",
        "122350.828000",
        "122351.826000",
        "122352.872000",
        "122353.772000",
        "122354.799000",
        "122355.809000",
        "122356.830000",
        "122357.820000",
        "122358.820000",
        "122359.815000",
        "122400.845000",
        "122401.815000",
        "122402.823000",
        "122403.828000",
        "122404.831000",
        "122405.808000",
        "122406.955000",
        "122407.820000",
        "122408.822000",
        "122409.819000",
        "122410.823000",
        "122411.815000",
        "122412.810000",
        "122413.809000",
        "122414.799000",
        "122415.829000",
        "122416.833000",
        "122417.854000",
        "122418.815000",
        "122419.819000",
        "122420.805000",
        "122421.786000",
        "122422.845000",
        "122423.812000",
        "122424.813000",
        "122425.796000",
        "122426.828000",
        "122427.820000",
        "122428.812000",
        "122429.821000",
        "122430.834000",
        "122431.819000",
        "122432.830000",
        "122433.809000",
        "122434.843000",
        "122435.789000",
        "122436.820000",
        "122437.819000",
        "122438.828000",
        "122439.811000",
        "122440.888000",
        "122441.852000",
        "122442.815000",
        "122443.804000",
        "122444.818000",
        "122445.831000",
        "122446.785000",
        "122447.813000",
        "122448.817000",
        "122449.820000",
        "122450.850000",
        "122451.866000",
        "122452.829000",
        "122453.845000",
        "122454.819000",
        "122455.848000"
      ],
      "InstanceCreationTime": [
        "122008.952000",
        "122009.823000",
        "122010.818000",
        "122011.840000",
        "122012.825000",
        "122013.817000",
        "122014.874000",
        "122015.835000",
        "122016.819000",
        "122017.847000",
        "122018.879000",
        "122019.823000",
        "122020.798000",
        "122021.801000",
        "122022.807000",
        "122023.794000",
        "122024.832000",
        "122025.824000",
        "122026.815000",
        "122027.803000",
        "122028.808000",
        "122029.814000",
        "122030.814000",
        "122031.837000",
        "122032.835000",
        "122033.837000",
        "122034.801000",
        "122035.793000",
        "122036.824000",
        "122037.838000",
        "122038.814000",
        "122039.807000",
        "122040.814000",
        "122041.805000",
        "122042.883000",
        "122043.830000",
        "122044.819000",
        "122045.813000",
        "122046.790000",
        "122047.801000",
        "122048.813000",
        "122049.806000",
        "122050.818000",
        "122051.813000",
        "122052.792000",
        "122053.793000",
        "122054.841000",
        "122055.836000",
        "122056.788000",
        "122057.788000",
        "122058.825000",
        "122059.842000",
        "122100.803000",
        "122101.815000",
        "122102.821000",
        "122103.819000",
        "122104.816000",
        "122105.807000",
        "122106.832000",
        "122107.843000",
        "122108.807000",
        "122109.893000",
        "122110.862000",
        "122111.815000",
        "122112.788000",
        "122113.811000",
        "122114.811000",
        "122115.837000",
        "122116.831000",
        "122117.838000",
        "122118.875000",
        "122119.836000",
        "122120.853000",
        "122121.802000",
        "122122.828000",
        "122123.871000",
        "122124.848000",
        "122125.807000",
        "122126.802000",
        "122127.820000",
        "122128.816000",
        "122129.807000",
        "122130.869000",
        "122131.820000",
        "122132.814000",
        "122133.797000",
        "122134.884000",
        "122135.782000",
        "122136.841000",
        "122137.841000",
        "122138.831000",
        "122139.839000",
        "122140.817000",
        "122141.820000",
        "122142.824000",
        "122143.816000",
        "122144.796000",
        "122145.807000",
        "122146.811000",
        "122147.842000",
        "122148.828000",
        "122149.813000",
        "122150.814000",
        "122151.839000",
        "122152.830000",
        "122153.887000",
        "122154.845000",
        "122155.817000",
        "122156.814000",
        "122157.808000",
        "122158.827000",
        "122159.824000",
        "122200.839000",
        "122201.812000",
        "122202.828000",
        "122203.785000",
        "122204.811000",
        "122205.839000",
        "122206.816000",
        "122207.810000",
        "122208.836000",
        "122209.851000",
        "122210.839000",
        "122211.825000",
        "122212.807000",
        "122213.848000",
        "122214.815000",
        "122215.802000",
        "122216.850000",
        "122217.860000",
        "122218.821000",
        "122219.807000",
        "122220.808000",
        "122221.811000",
        "122222.811000",
        "122223.815000",
        "122224.857000",
        "122225.834000",
        "122226.820000",
        "122227.810000",
        "122228.833000",
        "122229.811000",
        "122230.885000",
        "122231.824000",
        "122232.805000",
        "122233.828000",
        "122234.815000",
        "122235.862000",
        "122236.836000",
        "122237.823000",
        "122238.814000",
        "122239.849000",
        "122240.863000",
        "122241.794000",
        "122242.823000",
        "122243.839000",
        "122244.833000",
        "122245.810000",
        "122246.823000",
        "122247.821000",
        "122248.837000",
        "122249.824000",
        "122250.825000",
        "122251.819000",
        "122252.818000",
        "122253.815000",
        "122254.805000",
        "122255.797000",
        "122256.826000",
        "122257.823000",
        "122258.842000",
        "122259.900000",
        "122300.832000",
        "122301.826000",
        "122302.818000",
        "122303.808000",
        "122304.827000",
        "122305.816000",
        "122306.849000",
        "122307.822000",
        "122308.839000",
        "122309.902000",
        "122310.815000",
        "122311.868000",
        "122312.859000",
        "122313.831000",
        "122314.844000",
        "122315.843000",
        "122316.798000",
        "122317.810000",
        "122318.845000",
        "122319.810000",
        "122320.823000",
        "122321.803000",
        "122322.826000",
        "122323.832000",
        "122324.837000",
        "122325.808000",
        "122326.827000",
        "122327.831000",
        "122328.804000",
        "122329.806000",
        "122330.839000",
        "122331.789000",
        "122332.813000",
        "122333.809000",
        "122334.846000",
        "122335.846000",
        "122336.832000",
        "122337.808000",
        "122338.803000",
        "122339.840000",
        "122340.828000",
        "122341.855000",
        "122342.823000",
        "122343.823000",
        "122344.772000",
        "122345.867000",
        "122346.799000",
        "122347.820000",
        "122348.820000",
        "122349.820000",
        "122350.828000",
        "122351.826000",
        "122352.872000",
        "122353.772000",
        "122354.799000",
        "122355.809000",
        "122356.830000",
        "122357.820000",
        "122358.820000",
        "122359.815000",
        "122400.845000",
        "122401.815000",
        "122402.823000",
        "122403.828000",
        "122404.831000",
        "122405.808000",
        "122406.955000",
        "122407.820000",
        "122408.822000",
        "122409.819000",
        "122410.823000",
        "122411.815000",
        "122412.810000",
        "122413.809000",
        "122414.799000",
        "122415.829000",
        "122416.833000",
        "122417.854000",
        "122418.815000",
        "122419.819000",
        "122420.805000",
        "122421.786000",
        "122422.845000",
        "122423.812000",
        "122424.813000",
        "122425.796000",
        "122426.828000",
        "122427.820000",
        "122428.812000",
        "122429.821000",
        "122430.834000",
        "122431.819000",
        "122432.830000",
        "122433.809000",
        "122434.843000",
        "122435.789000",
        "122436.820000",
        "122437.819000",
        "122438.828000",
        "122439.811000",
        "122440.888000",
        "122441.852000",
        "122442.815000",
        "122443.804000",
        "122444.818000",
        "122445.831000",
        "122446.785000",
        "122447.813000",
        "122448.817000",
        "122449.820000",
        "122450.850000",
        "122451.866000",
        "122452.829000",
        "122453.845000",
        "122454.819000",
        "122455.848000"
      ],
      "InstanceNumber": [
        1,
        2,
        3,
        4,
        5,
        6,
        7,
        8,
        9,
        10,
        11,
        12,
        13,
        14,
        15,
        16,
        17,
        18,
        19,
        20,
        21,
        22,
        23,
        24,
        25,
        26,
        27,
        28,
        29,
        30,
        31,
        32,
        33,
        34,
        35,
        36,
        37,
        38,
        39,
        40,
        41,
        42,
        43,
        44,
        45,
        46,
        47,
        48,
        49,
        50,
        51,
        52,
        53,
        54,
        55,
        56,
        57,
        58,
        59,
        60,
        61,
        62,
        63,
        64,
        65,
        66,
        67,
        68,
        69,
        70,
        71,
        72,
        73,
        74,
        75,
        76,
        77,
        78,
        79,
        80,
        81,
        82,
        83,
        84,
        85,
        86,
        87,
        88,
        89,
        90,
        91,
        92,
        93,
        94,
        95,
        96,
        97,
        98,
        99,
        100,
        101,
        102,
        103,
        104,
        105,
        106,
        107,
        108,
        109,
        110,
        111,
        112,
        113,
        114,
        115,
        116,
        117,
        118,
        119,
        120,
        121,
        122,
        123,
        124,
        125,
        126,
        127,
        128,
        129,
        130,
        131,
        132,
        133,
        134,
        135,
        136,
        137,
        138,
        139,
        140,
        141,
        142,
        143,
        144,
        145,
        146,
        147,
        148,
        149,
        150,
        151,
        152,
        153,
        154,
        155,
