{
  "AcquisitionMatrixPE": 96,
  "AcquisitionNumber": 1,
  "BandwidthPerPixelPhaseEncode": 18.939,
  "BaseResolution": 96,
  "BodyPartExamined": "BRAIN",
  "ConsistencyInfo": "N4_VE11C_LATEST_20160120",
  "ConversionSoftware": "dcm2niix",
  "ConversionSoftwareVersion": "v1.0.20170923 (OpenJPEG build) GCC6.3.0",
  "DerivedVendorReportedEchoSpacing": 0.000550011,
  "DeviceSerialNumber": "66112",
  "DwellTime": 2.2e-06,
  "EchoTime": 0.033,
  "EchoTrainLength": 96,
  "EffectiveEchoSpacing": 0.000550011,
  "FlipAngle": 59,
  "ImageType": [
    "ORIGINAL",
    "PRIMARY",
    "FMRI",
    "NONE",
    "ND",
    "NORM",
    "MOSAIC"
  ],
  "InstitutionAddress": "Maynard_3_Hanover_NH_US_03755",
  "InstitutionName": "Dartmouth_College_-_PBS",
  "MagneticFieldStrength": 3,
  "Manufacturer": "Siemens",
  "ManufacturersModelName": "Prisma",
  "Modality": "MR",
  "MultibandAccelerationFactor": 4,
  "PercentPhaseFOV": 100,
  "PhaseEncodingDirection": "j-",
  "PhaseEncodingSteps": 96,
  "PhaseResolution": 1,
  "ProcedureStepDescription": "Gobbini_Matteo_1038_hyperface",
  "ProtocolName": "func_run-06_task-visualmemory",
  "PulseSequenceDetails": "%SiemensSeq%_ep2d_bold",
  "ReceiveCoilActiveElements": "HEA;HEP",
  "ReceiveCoilName": "Head_32",
  "ReconMatrixPE": 96,
  "RepetitionTime": 1,
  "ScanOptions": "FS",
  "ScanningSequence": "EP",
  "SequenceName": "_epfid2d1_96",
  "SequenceVariant": "SK",
  "SeriesDescription": "func_run-06_task-visualmemory",
  "SliceTiming": [
    0.735,
    0,
    0.49,
    0.0825,
    0.5725,
    0.165,
    0.655,
    0.3275,
    0.8175,
    0.41,
    0.9,
    0.245,
    0.735,
    0,
    0.49,
    0.0825,
    0.5725,
    0.165,
    0.655,
    0.3275,
    0.8175,
    0.41,
    0.9,
    0.245,
    0.735,
    0,
    0.49,
    0.0825,
    0.5725,
    0.165,
    0.655,
    0.3275,
    0.8175,
    0.41,
    0.9,
    0.245,
    0.735,
    0,
    0.49,
    0.0825,
    0.5725,
    0.165,
    0.655,
    0.3275,
    0.8175,
    0.41,
    0.9,
    0.245
  ],
  "SoftwareVersions": "syngo_MR_E11",
  "StationName": "AWP66112",
  "TotalReadoutTime": 0.0522511,
  "time": {
    "samples": {
      "AcquisitionNumber": [
        1,
        2,
        3,
        4,
        5,
        6,
        7,
        8,
        9,
        10,
        11,
        12,
        13,
        14,
        15,
        16,
        17,
        18,
        19,
        20,
        21,
        22,
        23,
        24,
        25,
        26,
        27,
        28,
        29,
        30,
        31,
        32,
        33,
        34,
        35,
        36,
        37,
        38,
        39,
        40,
        41,
        42,
        43,
        44,
        45,
        46,
        47,
        48,
        49,
        50,
        51,
        52,
        53,
        54,
        55,
        56,
        57,
        58,
        59,
        60,
        61,
        62,
        63,
        64,
        65,
        66,
        67,
        68,
        69,
        70,
        71,
        72,
        73,
        74,
        75,
        76,
        77,
        78,
        79,
        80,
        81,
        82,
        83,
        84,
        85,
        86,
        87,
        88,
        89,
        90,
        91,
        92,
        93,
        94,
        95,
        96,
        97,
        98,
        99,
        100,
        101,
        102,
        103,
        104,
        105,
        106,
        107,
        108,
        109,
        110,
        111,
        112,
        113,
        114,
        115,
        116,
        117,
        118,
        119,
        120,
        121,
        122,
        123,
        124,
        125,
        126,
        127,
        128,
        129,
        130,
        131,
        132,
        133,
        134,
        135,
        136,
        137,
        138,
        139,
        140,
        141,
        142,
        143,
        144,
        145,
        146,
        147,
        148,
        149,
        150,
        151,
        152,
        153,
        154,
        155,
        156,
        157,
        158,
        159,
        160,
        161,
        162,
        163,
        164,
        165,
        166,
        167,
        168,
        169,
        170,
        171,
        172,
        173,
        174,
        175,
        176,
        177,
        178,
        179,
        180,
        181,
        182,
        183,
        184,
        185,
        186,
        187,
        188,
        189,
        190,
        191,
        192,
        193,
        194,
        195,
        196,
        197,
        198,
        199,
        200,
        201,
        202,
        203,
        204,
        205,
        206,
        207,
        208,
        209,
        210,
        211,
        212,
        213,
        214,
        215,
        216,
        217,
        218,
        219,
        220,
        221,
        222,
        223,
        224,
        225,
        226,
        227,
        228,
        229,
        230,
        231,
        232,
        233,
        234,
        235,
        236,
        237,
        238,
        239,
        240,
        241,
        242,
        243,
        244,
        245,
        246,
        247,
        248,
        249,
        250,
        251,
        252,
        253,
        254,
        255,
        256,
        257,
        258,
        259,
        260,
        261,
        262,
        263,
        264,
        265,
        266,
        267,
        268,
        269,
        270,
        271,
        272,
        273,
        274,
        275,
        276,
        277,
        278,
        279,
        280,
        281,
        282,
        283,
        284,
        285,
        286,
        287,
        288
      ],
      "AcquisitionTime": [
        "093703.155000",
        "093704.155000",
        "093705.155000",
        "093706.155000",
        "093707.155000",
        "093708.155000",
        "093709.155000",
        "093710.155000",
        "093711.155000",
        "093712.155000",
        "093713.155000",
        "093714.155000",
        "093715.155000",
        "093716.155000",
        "093717.155000",
        "093718.155000",
        "093719.155000",
        "093720.155000",
        "093721.155000",
        "093722.155000",
        "093723.155000",
        "093724.155000",
        "093725.155000",
        "093726.155000",
        "093727.155000",
        "093728.155000",
        "093729.155000",
        "093730.155000",
        "093731.155000",
        "093732.155000",
        "093733.155000",
        "093734.155000",
        "093735.155000",
        "093736.155000",
        "093737.155000",
        "093738.155000",
        "093739.155000",
        "093740.155000",
        "093741.155000",
        "093742.155000",
        "093743.155000",
        "093744.155000",
        "093745.155000",
        "093746.155000",
        "093747.155000",
        "093748.155000",
        "093749.155000",
        "093750.155000",
        "093751.155000",
        "093752.155000",
        "093753.155000",
        "093754.155000",
        "093755.155000",
        "093756.155000",
        "093757.155000",
        "093758.155000",
        "093759.155000",
        "093800.155000",
        "093801.155000",
        "093802.155000",
        "093803.155000",
        "093804.155000",
        "093805.155000",
        "093806.155000",
        "093807.155000",
        "093808.155000",
        "093809.155000",
        "093810.155000",
        "093811.155000",
        "093812.155000",
        "093813.155000",
        "093814.155000",
        "093815.155000",
        "093816.155000",
        "093817.155000",
        "093818.155000",
        "093819.155000",
        "093820.155000",
        "093821.155000",
        "093822.155000",
        "093823.155000",
        "093824.155000",
        "093825.155000",
        "093826.155000",
        "093827.155000",
        "093828.155000",
        "093829.155000",
        "093830.155000",
        "093831.155000",
        "093832.155000",
        "093833.155000",
        "093834.155000",
        "093835.155000",
        "093836.155000",
        "093837.155000",
        "093838.155000",
        "093839.155000",
        "093840.155000",
        "093841.155000",
        "093842.155000",
        "093843.155000",
        "093844.155000",
        "093845.155000",
        "093846.155000",
        "093847.155000",
        "093848.155000",
        "093849.155000",
        "093850.155000",
        "093851.155000",
        "093852.155000",
        "093853.155000",
        "093854.155000",
        "093855.155000",
        "093856.155000",
        "093857.155000",
        "093858.155000",
        "093859.155000",
        "093900.155000",
        "093901.155000",
        "093902.155000",
        "093903.155000",
        "093904.155000",
        "093905.155000",
        "093906.155000",
        "093907.155000",
        "093908.155000",
        "093909.155000",
        "093910.155000",
        "093911.155000",
        "093912.155000",
        "093913.155000",
        "093914.155000",
        "093915.155000",
        "093916.155000",
        "093917.155000",
        "093918.155000",
        "093919.155000",
        "093920.155000",
        "093921.155000",
        "093922.155000",
        "093923.155000",
        "093924.155000",
        "093925.155000",
        "093926.155000",
        "093927.155000",
        "093928.155000",
        "093929.155000",
        "093930.155000",
        "093931.155000",
        "093932.155000",
        "093933.155000",
        "093934.155000",
        "093935.155000",
        "093936.155000",
        "093937.155000",
        "093938.155000",
        "093939.155000",
        "093940.155000",
        "093941.155000",
        "093942.155000",
        "093943.155000",
        "093944.155000",
        "093945.155000",
        "093946.155000",
        "093947.155000",
        "093948.155000",
        "093949.155000",
        "093950.155000",
        "093951.155000",
        "093952.155000",
        "093953.155000",
        "093954.155000",
        "093955.155000",
        "093956.155000",
        "093957.155000",
        "093958.155000",
        "093959.155000",
        "094000.155000",
        "094001.155000",
        "094002.155000",
        "094003.155000",
        "094004.155000",
        "094005.155000",
        "094006.155000",
        "094007.155000",
        "094008.155000",
        "094009.155000",
        "094010.155000",
        "094011.155000",
        "094012.155000",
        "094013.155000",
        "094014.155000",
        "094015.155000",
        "094016.155000",
        "094017.155000",
        "094018.155000",
        "094019.155000",
        "094020.155000",
        "094021.155000",
        "094022.155000",
        "094023.155000",
        "094024.155000",
        "094025.155000",
        "094026.155000",
        "094027.155000",
        "094028.155000",
        "094029.155000",
        "094030.155000",
        "094031.155000",
        "094032.155000",
        "094033.155000",
        "094034.155000",
        "094035.155000",
        "094036.155000",
        "094037.155000",
        "094038.155000",
        "094039.155000",
        "094040.155000",
        "094041.155000",
        "094042.155000",
        "094043.155000",
        "094044.155000",
        "094045.155000",
        "094046.155000",
        "094047.155000",
        "094048.155000",
        "094049.155000",
        "094050.155000",
        "094051.155000",
        "094052.155000",
        "094053.155000",
        "094054.155000",
        "094055.155000",
        "094056.155000",
        "094057.155000",
        "094058.155000",
        "094059.155000",
        "094100.155000",
        "094101.155000",
        "094102.155000",
        "094103.155000",
        "094104.155000",
        "094105.155000",
        "094106.155000",
        "094107.155000",
        "094108.155000",
        "094109.155000",
        "094110.155000",
        "094111.155000",
        "094112.155000",
        "094113.155000",
        "094114.155000",
        "094115.155000",
        "094116.155000",
        "094117.155000",
        "094118.155000",
        "094119.155000",
        "094120.155000",
        "094121.155000",
        "094122.155000",
        "094123.155000",
        "094124.155000",
        "094125.155000",
        "094126.155000",
        "094127.155000",
        "094128.155000",
        "094129.155000",
        "094130.155000",
        "094131.155000",
        "094132.155000",
        "094133.155000",
        "094134.155000",
        "094135.155000",
        "094136.155000",
        "094137.155000",
        "094138.155000",
        "094139.155000",
        "094140.155000",
        "094141.155000",
        "094142.155000",
        "094143.155000",
        "094144.155000",
        "094145.155000",
        "094146.155000",
        "094147.155000",
        "094148.155000",
        "094149.155000",
        "094150.155000"
      ],
      "ContentTime": [
        "093704.054000",
        "093704.888000",
        "093705.909000",
        "093706.893000",
        "093708.011000",
        "093708.888000",
        "093709.888000",
        "093710.894000",
        "093711.924000",
        "093712.924000",
        "093713.922000",
        "093714.922000",
        "093715.935000",
        "093716.902000",
        "093717.916000",
        "093718.962000",
        "093719.973000",
        "093720.907000",
        "093721.911000",
        "093722.912000",
        "093723.908000",
        "093724.915000",
        "093725.971000",
        "093726.885000",
        "093727.910000",
        "093728.870000",
        "093729.947000",
        "093730.910000",
        "093731.911000",
        "093732.951000",
        "093733.939000",
        "093734.941000",
        "093735.913000",
        "093736.905000",
        "093737.903000",
        "093738.922000",
        "093739.922000",
        "093740.915000",
        "093741.912000",
        "093742.922000",
        "093743.912000",
        "093744.928000",
        "093745.897000",
        "093746.886000",
        "093747.941000",
        "093748.906000",
        "093749.906000",
        "093750.915000",
        "093751.904000",
        "093753.027000",
        "093753.943000",
        "093754.892000",
        "093755.900000",
        "093756.901000",
        "093757.931000",
        "093758.901000",
        "093759.917000",
        "093800.922000",
        "093801.909000",
        "093802.901000",
        "093803.909000",
        "093804.904000",
        "093805.888000",
        "093806.904000",
        "093807.896000",
        "093808.892000",
        "093809.892000",
        "093810.936000",
        "093811.920000",
        "093812.920000",
        "093813.892000",
        "093814.895000",
        "093815.944000",
        "093816.911000",
        "093817.907000",
        "093818.904000",
        "093819.907000",
        "093820.921000",
        "093821.883000",
        "093822.872000",
        "093823.894000",
        "093824.919000",
        "093825.892000",
        "093826.898000",
        "093827.958000",
        "093828.902000",
        "093829.901000",
        "093830.913000",
        "093831.896000",
        "093832.915000",
        "093833.886000",
        "093834.897000",
        "093835.899000",
        "093836.926000",
        "093837.913000",
        "093838.904000",
        "093839.896000",
        "093840.887000",
        "093841.939000",
        "093842.926000",
        "093843.912000",
        "093844.964000",
        "093845.919000",
        "093846.941000",
        "093847.939000",
        "093848.931000",
        "093849.946000",
        "093850.928000",
        "093851.904000",
        "093852.929000",
        "093853.916000",
        "093854.932000",
        "093855.946000",
        "093856.915000",
        "093857.911000",
        "093858.911000",
        "093859.923000",
        "093900.929000",
        "093901.917000",
        "093902.913000",
        "093903.959000",
        "093904.916000",
        "093905.934000",
        "093906.929000",
        "093907.919000",
        "093908.942000",
        "093909.928000",
        "093910.919000",
        "093911.905000",
        "093912.915000",
        "093913.940000",
        "093914.920000",
        "093915.951000",
        "093916.887000",
        "093917.902000",
        "093918.926000",
        "093919.931000",
        "093920.916000",
        "093921.903000",
        "093922.929000",
        "093923.903000",
        "093924.899000",
        "093925.893000",
        "093926.893000",
        "093927.901000",
        "093928.988000",
        "093929.908000",
        "093930.921000",
        "093931.913000",
        "093932.919000",
        "093933.908000",
        "093934.921000",
        "093935.950000",
        "093936.904000",
        "093937.884000",
        "093938.910000",
        "093939.911000",
        "093940.893000",
        "093941.913000",
        "093942.919000",
        "093943.960000",
        "093944.888000",
        "093945.927000",
        "093946.922000",
        "093947.922000",
        "093948.949000",
        "093949.934000",
        "093950.913000",
        "093951.902000",
        "093952.912000",
        "093953.902000",
        "093954.903000",
        "093955.909000",
        "093956.921000",
        "093957.935000",
        "093958.894000",
        "093959.930000",
        "094000.930000",
        "094001.946000",
        "094002.931000",
        "094003.906000",
        "094004.911000",
        "094005.911000",
        "094006.921000",
        "094007.908000",
        "094008.924000",
        "094009.925000",
        "094010.921000",
        "094011.936000",
        "094012.937000",
        "094013.914000",
        "094014.934000",
        "094015.934000",
        "094016.917000",
        "094017.910000",
        "094018.916000",
        "094019.923000",
        "094020.904000",
        "094021.903000",
        "094022.926000",
        "094023.906000",
        "094024.923000",
        "094025.904000",
        "094026.902000",
        "094027.917000",
        "094028.904000",
        "094029.916000",
        "094030.906000",
        "094031.909000",
        "094032.895000",
        "094033.880000",
        "094034.890000",
        "094035.943000",
        "094036.944000",
        "094037.904000",
        "094038.906000",
        "094039.918000",
        "094040.912000",
        "094041.885000",
        "094042.952000",
        "094043.922000",
        "094044.900000",
        "094045.900000",
        "094046.915000",
        "094047.904000",
        "094048.895000",
        "094049.918000",
        "094050.901000",
        "094051.906000",
        "094052.908000",
        "094053.883000",
        "094054.877000",
        "094055.915000",
        "094056.921000",
        "094057.915000",
        "094058.916000",
        "094059.919000",
        "094100.902000",
        "094101.914000",
        "094102.898000",
        "094103.894000",
        "094104.907000",
        "094105.995000",
        "094106.914000",
        "094107.908000",
        "094108.912000",
        "094109.922000",
        "094110.897000",
        "094111.919000",
        "094112.917000",
        "094113.936000",
        "094114.915000",
        "094115.896000",
        "094116.910000",
        "094117.899000",
        "094118.950000",
        "094119.930000",
        "094120.904000",
        "094121.901000",
        "094122.907000",
        "094123.923000",
        "094124.907000",
        "094125.926000",
        "094126.910000",
        "094127.908000",
        "094128.919000",
        "094129.913000",
        "094130.933000",
        "094131.910000",
        "094132.922000",
        "094133.902000",
        "094134.879000",
        "094135.915000",
        "094136.913000",
        "094137.913000",
        "094138.912000",
        "094139.939000",
        "094140.917000",
        "094141.912000",
        "094142.923000",
        "094143.918000",
        "094144.903000",
        "094145.912000",
        "094146.917000",
        "094147.891000",
        "094148.913000",
        "094149.902000",
        "094150.937000"
      ],
      "InstanceCreationTime": [
        "093704.054000",
        "093704.888000",
        "093705.909000",
        "093706.893000",
        "093708.011000",
        "093708.888000",
        "093709.888000",
        "093710.894000",
        "093711.924000",
        "093712.924000",
        "093713.922000",
        "093714.922000",
        "093715.935000",
        "093716.902000",
        "093717.916000",
        "093718.962000",
        "093719.973000",
        "093720.907000",
        "093721.911000",
        "093722.912000",
        "093723.908000",
        "093724.915000",
        "093725.971000",
        "093726.885000",
        "093727.910000",
        "093728.870000",
        "093729.947000",
        "093730.910000",
        "093731.911000",
        "093732.951000",
        "093733.939000",
        "093734.941000",
        "093735.913000",
        "093736.905000",
        "093737.903000",
        "093738.922000",
        "093739.922000",
        "093740.915000",
        "093741.912000",
        "093742.922000",
        "093743.912000",
        "093744.928000",
        "093745.897000",
        "093746.886000",
        "093747.941000",
        "093748.906000",
        "093749.906000",
        "093750.915000",
        "093751.904000",
        "093753.027000",
        "093753.943000",
        "093754.892000",
        "093755.900000",
        "093756.901000",
        "093757.931000",
        "093758.901000",
        "093759.917000",
        "093800.922000",
        "093801.909000",
        "093802.901000",
        "093803.909000",
        "093804.904000",
        "093805.888000",
        "093806.904000",
        "093807.896000",
        "093808.892000",
        "093809.892000",
        "093810.936000",
        "093811.920000",
        "093812.920000",
        "093813.892000",
        "093814.895000",
        "093815.944000",
        "093816.911000",
        "093817.907000",
        "093818.904000",
        "093819.907000",
        "093820.921000",
        "093821.883000",
        "093822.872000",
        "093823.894000",
        "093824.919000",
        "093825.892000",
        "093826.898000",
        "093827.958000",
        "093828.902000",
        "093829.901000",
        "093830.913000",
        "093831.896000",
        "093832.915000",
        "093833.886000",
        "093834.897000",
        "093835.899000",
        "093836.926000",
        "093837.913000",
        "093838.904000",
        "093839.896000",
        "093840.887000",
        "093841.939000",
        "093842.926000",
        "093843.912000",
        "093844.964000",
        "093845.919000",
        "093846.941000",
        "093847.939000",
        "093848.931000",
        "093849.946000",
        "093850.928000",
        "093851.904000",
        "093852.929000",
        "093853.916000",
        "093854.932000",
        "093855.946000",
        "093856.915000",
        "093857.911000",
        "093858.911000",
        "093859.923000",
        "093900.929000",
        "093901.917000",
        "093902.913000",
        "093903.959000",
        "093904.916000",
        "093905.934000",
        "093906.929000",
        "093907.919000",
        "093908.942000",
        "093909.928000",
        "093910.919000",
        "093911.905000",
        "093912.915000",
        "093913.940000",
        "093914.920000",
        "093915.951000",
        "093916.887000",
        "093917.902000",
        "093918.926000",
        "093919.931000",
        "093920.916000",
        "093921.903000",
        "093922.929000",
        "093923.903000",
        "093924.899000",
        "093925.893000",
        "093926.893000",
        "093927.901000",
        "093928.988000",
        "093929.908000",
        "093930.921000",
        "093931.913000",
        "093932.919000",
        "093933.908000",
        "093934.921000",
        "093935.950000",
        "093936.904000",
        "093937.884000",
        "093938.910000",
        "093939.911000",
        "093940.893000",
        "093941.913000",
        "093942.919000",
        "093943.960000",
        "093944.888000",
        "093945.927000",
        "093946.922000",
        "093947.922000",
        "093948.949000",
        "093949.934000",
        "093950.913000",
        "093951.902000",
        "093952.912000",
        "093953.902000",
        "093954.903000",
        "093955.909000",
        "093956.921000",
        "093957.935000",
        "093958.894000",
        "093959.930000",
        "094000.930000",
        "094001.946000",
        "094002.931000",
        "094003.906000",
        "094004.911000",
        "094005.911000",
        "094006.921000",
        "094007.908000",
        "094008.924000",
        "094009.925000",
        "094010.921000",
        "094011.936000",
        "094012.937000",
        "094013.914000",
        "094014.934000",
        "094015.934000",
        "094016.917000",
        "094017.910000",
        "094018.916000",
        "094019.923000",
        "094020.904000",
        "094021.903000",
        "094022.926000",
        "094023.906000",
        "094024.923000",
        "094025.904000",
        "094026.902000",
        "094027.917000",
        "094028.904000",
        "094029.916000",
        "094030.906000",
        "094031.909000",
        "094032.895000",
        "094033.880000",
        "094034.890000",
        "094035.943000",
        "094036.944000",
        "094037.904000",
        "094038.906000",
        "094039.918000",
        "094040.912000",
        "094041.885000",
        "094042.952000",
        "094043.922000",
        "094044.900000",
        "094045.900000",
        "094046.915000",
        "094047.904000",
        "094048.895000",
        "094049.918000",
        "094050.901000",
        "094051.906000",
        "094052.908000",
        "094053.883000",
        "094054.877000",
        "094055.915000",
        "094056.921000",
        "094057.915000",
        "094058.916000",
        "094059.919000",
        "094100.902000",
        "094101.914000",
        "094102.898000",
        "094103.894000",
        "094104.907000",
        "094105.995000",
        "094106.914000",
        "094107.908000",
        "094108.912000",
        "094109.922000",
        "094110.897000",
        "094111.919000",
        "094112.917000",
        "094113.936000",
        "094114.915000",
        "094115.896000",
        "094116.910000",
        "094117.899000",
        "094118.950000",
        "094119.930000",
        "094120.904000",
        "094121.901000",
        "094122.907000",
        "094123.923000",
        "094124.907000",
        "094125.926000",
        "094126.910000",
        "094127.908000",
        "094128.919000",
        "094129.913000",
        "094130.933000",
        "094131.910000",
        "094132.922000",
        "094133.902000",
        "094134.879000",
        "094135.915000",
        "094136.913000",
        "094137.913000",
        "094138.912000",
        "094139.939000",
        "094140.917000",
        "094141.912000",
        "094142.923000",
        "094143.918000",
        "094144.903000",
        "094145.912000",
        "094146.917000",
        "094147.891000",
        "094148.913000",
        "094149.902000",
        "094150.937000"
      ],
      "InstanceNumber": [
        1,
        2,
        3,
        4,
        5,
        6,
        7,
        8,
        9,
        10,
        11,
        12,
        13,
        14,
        15,
        16,
        17,
        18,
        19,
        20,
        21,
        22,
        23,
        24,
        25,
        26,
        27,
        28,
        29,
        30,
        31,
        32,
        33,
        34,
        35,
        36,
        37,
        38,
        39,
        40,
        41,
        42,
        43,
        44,
        45,
        46,
        47,
        48,
        49,
        50,
        51,
        52,
        53,
        54,
        55,
        56,
        57,
        58,
        59,
        60,
        61,
        62,
        63,
        64,
        65,
        66,
        67,
        68,
        69,
        70,
        71,
        72,
        73,
        74,
        75,
        76,
        77,
        78,
        79,
        80,
        81,
        82,
        83,
        84,
        85,
        86,
        87,
        88,
        89,
        90,
        91,
        92,
        93,
        94,
        95,
        96,
        97,
        98,
        99,
        100,
        101,
        102,
        103,
        104,
        105,
        106,
        107,
        108,
        109,
        110,
        111,
        112,
        113,
        114,
        115,
        116,
        117,
        118,
        119,
        120,
        121,
        122,
        123,
        124,
        125,
        126,
        127,
        128,
        129,
        130,
        131,
        132,
        133,
        134,
        135,
        136,
        137,
        138,
        139,
        140,
        141,
        142,
        143,
        144,
        145,
        146,
        147,
        148,
        149,
        150,
        151,
        152,
        153,
        154,
        155,
        156,
        157,
        158,
        159,
        160,
        161,
        162,
        163,
        164,
        165,
        166,
        167,
        168,
        169,
        170,
        171,
        172,
        173,
        174,
        175,
        176,
        177,
        178,
        179,
        180,
        181,
        182,
        183,
        184,
        185,
        186,
        187,
        188,
        189,
        190,
        191,
        192,
        193,
        194,
        195,
        196,
        197,
        198,
