{
  "AcquisitionMatrixPE": 96,
  "AcquisitionNumber": 1,
  "BandwidthPerPixelPhaseEncode": 18.939,
  "BaseResolution": 96,
  "BodyPartExamined": "BRAIN",
  "ConsistencyInfo": "N4_VE11C_LATEST_20160120",
  "ConversionSoftware": "dcm2niix",
  "ConversionSoftwareVersion": "v1.0.20170923 (OpenJPEG build) GCC6.3.0",
  "DerivedVendorReportedEchoSpacing": 0.000550011,
  "DeviceSerialNumber": "66112",
  "DwellTime": 2.2e-06,
  "EchoTime": 0.033,
  "EchoTrainLength": 96,
  "EffectiveEchoSpacing": 0.000550011,
  "FlipAngle": 59,
  "ImageType": [
    "ORIGINAL",
    "PRIMARY",
    "FMRI",
    "NONE",
    "ND",
    "NORM",
    "MOSAIC"
  ],
  "InstitutionAddress": "Maynard_3_Hanover_NH_US_03755",
  "InstitutionName": "Dartmouth_College_-_PBS",
  "MagneticFieldStrength": 3,
  "Manufacturer": "Siemens",
  "ManufacturersModelName": "Prisma",
  "Modality": "MR",
  "MultibandAccelerationFactor": 4,
  "PartialFourier": 1,
  "PercentPhaseFOV": 100,
  "PhaseEncodingDirection": "j-",
  "PhaseEncodingSteps": 96,
  "PhaseResolution": 1,
  "ProcedureStepDescription": "Gobbini_Matteo_1038_hyperface",
  "ProtocolName": "func_run-03_task-visualmemory",
  "PulseSequenceDetails": "%SiemensSeq%_ep2d_bold",
  "ReceiveCoilActiveElements": "HEA;HEP",
  "ReceiveCoilName": "Head_32",
  "ReconMatrixPE": 96,
  "RepetitionTime": 1,
  "ScanOptions": "FS",
  "ScanningSequence": "EP",
  "SequenceName": "_epfid2d1_96",
  "SequenceVariant": "SK",
  "SeriesDescription": "func_run-03_task-visualmemory",
  "SliceTiming": [
    0.735,
    0,
    0.49,
    0.0825,
    0.5725,
    0.165,
    0.655,
    0.3275,
    0.8175,
    0.41,
    0.9,
    0.245,
    0.735,
    0,
    0.49,
    0.0825,
    0.5725,
    0.165,
    0.655,
    0.3275,
    0.8175,
    0.41,
    0.9,
    0.245,
    0.735,
    0,
    0.49,
    0.0825,
    0.5725,
    0.165,
    0.655,
    0.3275,
    0.8175,
    0.41,
    0.9,
    0.245,
    0.735,
    0,
    0.49,
    0.0825,
    0.5725,
    0.165,
    0.655,
    0.3275,
    0.8175,
    0.41,
    0.9,
    0.245
  ],
  "SoftwareVersions": "syngo_MR_E11",
  "StationName": "AWP66112",
  "TotalReadoutTime": 0.0522511,
  "time": {
    "samples": {
      "AcquisitionNumber": [
        1,
        2,
        3,
        4,
        5,
        6,
        7,
        8,
        9,
        10,
        11,
        12,
        13,
        14,
        15,
        16,
        17,
        18,
        19,
        20,
        21,
        22,
        23,
        24,
        25,
        26,
        27,
        28,
        29,
        30,
        31,
        32,
        33,
        34,
        35,
        36,
        37,
        38,
        39,
        40,
        41,
        42,
        43,
        44,
        45,
        46,
        47,
        48,
        49,
        50,
        51,
        52,
        53,
        54,
        55,
        56,
        57,
        58,
        59,
        60,
        61,
        62,
        63,
        64,
        65,
        66,
        67,
        68,
        69,
        70,
        71,
        72,
        73,
        74,
        75,
        76,
        77,
        78,
        79,
        80,
        81,
        82,
        83,
        84,
        85,
        86,
        87,
        88,
        89,
        90,
        91,
        92,
        93,
        94,
        95,
        96,
        97,
        98,
        99,
        100,
        101,
        102,
        103,
        104,
        105,
        106,
        107,
        108,
        109,
        110,
        111,
        112,
        113,
        114,
        115,
        116,
        117,
        118,
        119,
        120,
        121,
        122,
        123,
        124,
        125,
        126,
        127,
        128,
        129,
        130,
        131,
        132,
        133,
        134,
        135,
        136,
        137,
        138,
        139,
        140,
        141,
        142,
        143,
        144,
        145,
        146,
        147,
        148,
        149,
        150,
        151,
        152,
        153,
        154,
        155,
        156,
        157,
        158,
        159,
        160,
        161,
        162,
        163,
        164,
        165,
        166,
        167,
        168,
        169,
        170,
        171,
        172,
        173,
        174,
        175,
        176,
        177,
        178,
        179,
        180,
        181,
        182,
        183,
        184,
        185,
        186,
        187,
        188,
        189,
        190,
        191,
        192,
        193,
        194,
        195,
        196,
        197,
        198,
        199,
        200,
        201,
        202,
        203,
        204,
        205,
        206,
        207,
        208,
        209,
        210,
        211,
        212,
        213,
        214,
        215,
        216,
        217,
        218,
        219,
        220,
        221,
        222,
        223,
        224,
        225,
        226,
        227,
        228,
        229,
        230,
        231,
        232,
        233,
        234,
        235,
        236,
        237,
        238,
        239,
        240,
        241,
        242,
        243,
        244,
        245,
        246,
        247,
        248,
        249,
        250,
        251,
        252,
        253,
        254,
        255,
        256,
        257,
        258,
        259,
        260,
        261,
        262,
        263,
        264,
        265,
        266,
        267,
        268,
        269,
        270,
        271,
        272,
        273,
        274,
        275,
        276,
        277,
        278,
        279,
        280,
        281,
        282,
        283,
        284,
        285,
        286,
        287,
        288
      ],
      "AcquisitionTime": [
        "092113.377500",
        "092114.377500",
        "092115.377500",
        "092116.377500",
        "092117.377500",
        "092118.377500",
        "092119.377500",
        "092120.377500",
        "092121.377500",
        "092122.377500",
        "092123.377500",
        "092124.377500",
        "092125.377500",
        "092126.377500",
        "092127.377500",
        "092128.377500",
        "092129.377500",
        "092130.377500",
        "092131.377500",
        "092132.377500",
        "092133.377500",
        "092134.377500",
        "092135.377500",
        "092136.377500",
        "092137.377500",
        "092138.377500",
        "092139.377500",
        "092140.377500",
        "092141.377500",
        "092142.377500",
        "092143.377500",
        "092144.377500",
        "092145.377500",
        "092146.377500",
        "092147.377500",
        "092148.377500",
        "092149.377500",
        "092150.377500",
        "092151.377500",
        "092152.377500",
        "092153.377500",
        "092154.377500",
        "092155.377500",
        "092156.377500",
        "092157.377500",
        "092158.377500",
        "092159.377500",
        "092200.377500",
        "092201.377500",
        "092202.377500",
        "092203.377500",
        "092204.377500",
        "092205.377500",
        "092206.377500",
        "092207.377500",
        "092208.377500",
        "092209.377500",
        "092210.377500",
        "092211.377500",
        "092212.377500",
        "092213.377500",
        "092214.377500",
        "092215.377500",
        "092216.377500",
        "092217.377500",
        "092218.377500",
        "092219.377500",
        "092220.377500",
        "092221.377500",
        "092222.377500",
        "092223.377500",
        "092224.377500",
        "092225.377500",
        "092226.377500",
        "092227.377500",
        "092228.377500",
        "092229.377500",
        "092230.377500",
        "092231.377500",
        "092232.377500",
        "092233.377500",
        "092234.377500",
        "092235.377500",
        "092236.377500",
        "092237.377500",
        "092238.377500",
        "092239.377500",
        "092240.377500",
        "092241.377500",
        "092242.377500",
        "092243.377500",
        "092244.377500",
        "092245.377500",
        "092246.377500",
        "092247.377500",
        "092248.377500",
        "092249.377500",
        "092250.377500",
        "092251.377500",
        "092252.377500",
        "092253.377500",
        "092254.377500",
        "092255.377500",
        "092256.377500",
        "092257.377500",
        "092258.377500",
        "092259.377500",
        "092300.377500",
        "092301.377500",
        "092302.377500",
        "092303.377500",
        "092304.377500",
        "092305.377500",
        "092306.377500",
        "092307.377500",
        "092308.377500",
        "092309.377500",
        "092310.377500",
        "092311.377500",
        "092312.377500",
        "092313.377500",
        "092314.377500",
        "092315.377500",
        "092316.377500",
        "092317.377500",
        "092318.377500",
        "092319.377500",
        "092320.377500",
        "092321.377500",
        "092322.377500",
        "092323.377500",
        "092324.377500",
        "092325.377500",
        "092326.377500",
        "092327.377500",
        "092328.377500",
        "092329.377500",
        "092330.377500",
        "092331.377500",
        "092332.377500",
        "092333.377500",
        "092334.377500",
        "092335.377500",
        "092336.377500",
        "092337.377500",
        "092338.377500",
        "092339.377500",
        "092340.377500",
        "092341.377500",
        "092342.377500",
        "092343.377500",
        "092344.377500",
        "092345.377500",
        "092346.377500",
        "092347.377500",
        "092348.377500",
        "092349.377500",
        "092350.377500",
        "092351.377500",
        "092352.377500",
        "092353.377500",
        "092354.377500",
        "092355.377500",
        "092356.377500",
        "092357.377500",
        "092358.377500",
        "092359.377500",
        "092400.377500",
        "092401.377500",
        "092402.377500",
        "092403.377500",
        "092404.377500",
        "092405.377500",
        "092406.377500",
        "092407.377500",
        "092408.377500",
        "092409.377500",
        "092410.377500",
        "092411.377500",
        "092412.377500",
        "092413.377500",
        "092414.377500",
        "092415.377500",
        "092416.377500",
        "092417.377500",
        "092418.377500",
        "092419.377500",
        "092420.377500",
        "092421.377500",
        "092422.377500",
        "092423.377500",
        "092424.377500",
        "092425.377500",
        "092426.377500",
        "092427.377500",
        "092428.377500",
        "092429.377500",
        "092430.377500",
        "092431.377500",
        "092432.377500",
        "092433.377500",
        "092434.377500",
        "092435.377500",
        "092436.377500",
        "092437.377500",
        "092438.377500",
        "092439.377500",
        "092440.377500",
        "092441.377500",
        "092442.377500",
        "092443.377500",
        "092444.377500",
        "092445.377500",
        "092446.377500",
        "092447.377500",
        "092448.377500",
        "092449.377500",
        "092450.377500",
        "092451.377500",
        "092452.377500",
        "092453.377500",
        "092454.377500",
        "092455.377500",
        "092456.377500",
        "092457.377500",
        "092458.377500",
        "092459.377500",
        "092500.377500",
        "092501.377500",
        "092502.377500",
        "092503.377500",
        "092504.377500",
        "092505.377500",
        "092506.377500",
        "092507.377500",
        "092508.377500",
        "092509.377500",
        "092510.377500",
        "092511.377500",
        "092512.377500",
        "092513.377500",
        "092514.377500",
        "092515.377500",
        "092516.377500",
        "092517.377500",
        "092518.377500",
        "092519.377500",
        "092520.377500",
        "092521.377500",
        "092522.377500",
        "092523.377500",
        "092524.377500",
        "092525.377500",
        "092526.377500",
        "092527.377500",
        "092528.377500",
        "092529.377500",
        "092530.377500",
        "092531.377500",
        "092532.377500",
        "092533.377500",
        "092534.377500",
        "092535.377500",
        "092536.377500",
        "092537.377500",
        "092538.377500",
        "092539.377500",
        "092540.377500",
        "092541.377500",
        "092542.377500",
        "092543.377500",
        "092544.377500",
        "092545.377500",
        "092546.377500",
        "092547.377500",
        "092548.377500",
        "092549.377500",
        "092550.377500",
        "092551.377500",
        "092552.377500",
        "092553.377500",
        "092554.377500",
        "092555.377500",
        "092556.377500",
        "092557.377500",
        "092558.377500",
        "092559.377500",
        "092600.377500"
      ],
      "ContentTime": [
        "092114.881000",
        "092115.622000",
        "092116.610000",
        "092117.617000",
        "092118.620000",
        "092119.639000",
        "092120.661000",
        "092121.629000",
        "092122.618000",
        "092123.636000",
        "092124.632000",
        "092125.629000",
        "092126.630000",
        "092127.636000",
        "092128.626000",
        "092129.597000",
        "092130.627000",
        "092131.637000",
        "092132.624000",
        "092133.638000",
        "092134.644000",
        "092135.632000",
        "092136.632000",
        "092137.615000",
        "092138.657000",
        "092139.622000",
        "092140.635000",
        "092141.611000",
        "092142.632000",
        "092143.633000",
        "092144.624000",
        "092145.625000",
        "092146.616000",
        "092147.621000",
        "092148.643000",
        "092149.691000",
        "092150.642000",
        "092151.654000",
        "092152.662000",
        "092153.620000",
        "092154.638000",
        "092155.627000",
        "092156.627000",
        "092157.637000",
        "092158.633000",
        "092159.640000",
        "092200.614000",
        "092201.627000",
        "092202.631000",
        "092203.617000",
        "092204.625000",
        "092205.630000",
        "092206.630000",
        "092207.673000",
        "092208.635000",
        "092209.621000",
        "092210.609000",
        "092211.627000",
        "092212.634000",
        "092213.673000",
        "092214.623000",
        "092215.667000",
        "092216.613000",
        "092217.632000",
        "092218.626000",
        "092219.623000",
        "092220.623000",
        "092221.647000",
        "092222.635000",
        "092223.618000",
        "092224.619000",
        "092225.614000",
        "092226.616000",
        "092227.620000",
        "092228.619000",
        "092229.650000",
        "092230.616000",
        "092231.617000",
        "092232.633000",
        "092233.617000",
        "092234.658000",
        "092235.716000",
        "092236.610000",
        "092237.642000",
        "092238.637000",
        "092239.617000",
        "092240.623000",
        "092241.627000",
        "092242.627000",
        "092243.630000",
        "092244.625000",
        "092245.612000",
        "092246.627000",
        "092247.611000",
        "092248.632000",
        "092249.639000",
        "092250.650000",
        "092251.629000",
        "092252.653000",
        "092253.600000",
        "092254.635000",
        "092255.644000",
        "092256.650000",
        "092257.647000",
        "092258.630000",
        "092259.634000",
        "092300.629000",
        "092301.653000",
        "092302.639000",
        "092303.628000",
        "092304.634000",
        "092305.619000",
        "092306.681000",
        "092307.650000",
        "092308.634000",
        "092309.627000",
        "092310.646000",
        "092311.639000",
        "092312.654000",
        "092313.693000",
        "092314.683000",
        "092315.642000",
        "092316.616000",
        "092317.650000",
        "092318.652000",
        "092319.614000",
        "092320.604000",
        "092321.640000",
        "092322.625000",
        "092323.636000",
        "092324.649000",
        "092325.646000",
        "092326.654000",
        "092327.672000",
        "092328.620000",
        "092329.634000",
        "092330.623000",
        "092331.646000",
        "092332.614000",
        "092333.633000",
        "092334.658000",
        "092335.603000",
        "092336.638000",
        "092337.623000",
        "092338.691000",
        "092339.643000",
        "092340.630000",
        "092341.616000",
        "092342.633000",
        "092343.633000",
        "092344.665000",
        "092345.638000",
        "092346.629000",
        "092347.622000",
        "092348.621000",
        "092349.623000",
        "092350.630000",
        "092351.683000",
        "092352.641000",
        "092353.644000",
        "092354.623000",
        "092355.642000",
        "092356.612000",
        "092357.642000",
        "092358.662000",
        "092359.669000",
        "092400.620000",
        "092401.612000",
        "092402.620000",
        "092403.639000",
        "092404.633000",
        "092405.680000",
        "092406.625000",
        "092407.621000",
        "092408.643000",
        "092409.623000",
        "092410.659000",
        "092411.687000",
        "092412.650000",
        "092413.653000",
        "092414.624000",
        "092415.683000",
        "092416.622000",
        "092417.634000",
        "092418.648000",
        "092419.654000",
        "092420.675000",
        "092421.629000",
        "092422.646000",
        "092423.675000",
        "092424.652000",
        "092425.643000",
        "092426.660000",
        "092427.645000",
        "092428.645000",
        "092429.635000",
        "092430.628000",
        "092431.638000",
        "092432.655000",
        "092433.665000",
        "092434.645000",
        "092435.650000",
        "092436.660000",
        "092437.643000",
        "092438.626000",
        "092439.625000",
        "092440.623000",
        "092441.668000",
        "092442.635000",
        "092443.639000",
        "092444.629000",
        "092445.663000",
        "092446.682000",
        "092447.658000",
        "092448.652000",
        "092449.625000",
        "092450.646000",
        "092451.611000",
        "092452.683000",
        "092453.639000",
        "092454.636000",
        "092455.657000",
        "092456.627000",
        "092457.657000",
        "092458.612000",
        "092459.626000",
        "092500.652000",
        "092501.626000",
        "092502.642000",
        "092503.683000",
        "092504.676000",
        "092505.663000",
        "092506.633000",
        "092507.644000",
        "092508.638000",
        "092509.636000",
        "092510.619000",
        "092511.625000",
        "092512.679000",
        "092513.617000",
        "092514.611000",
        "092515.649000",
        "092516.645000",
        "092517.666000",
        "092518.645000",
        "092519.672000",
        "092520.657000",
        "092521.642000",
        "092522.625000",
        "092523.660000",
        "092524.637000",
        "092525.641000",
        "092526.645000",
        "092527.658000",
        "092528.619000",
        "092529.645000",
        "092530.605000",
        "092531.615000",
        "092532.634000",
        "092533.636000",
        "092534.630000",
        "092535.661000",
        "092536.640000",
        "092537.637000",
        "092538.631000",
        "092539.637000",
        "092540.700000",
        "092541.638000",
        "092542.662000",
        "092543.605000",
        "092544.642000",
        "092545.636000",
        "092546.619000",
        "092547.625000",
        "092548.610000",
        "092549.620000",
        "092550.623000",
        "092551.667000",
        "092552.625000",
        "092553.657000",
        "092554.638000",
        "092555.650000",
        "092556.645000",
        "092557.610000",
        "092558.657000",
        "092559.639000",
        "092600.647000",
        "092601.654000"
      ],
      "InstanceCreationTime": [
        "092114.881000",
        "092115.622000",
        "092116.610000",
        "092117.617000",
        "092118.620000",
        "092119.639000",
        "092120.661000",
        "092121.629000",
        "092122.618000",
        "092123.636000",
        "092124.632000",
        "092125.629000",
        "092126.630000",
        "092127.636000",
        "092128.626000",
        "092129.597000",
        "092130.627000",
        "092131.637000",
        "092132.624000",
        "092133.638000",
        "092134.644000",
        "092135.632000",
        "092136.632000",
        "092137.615000",
        "092138.657000",
        "092139.622000",
        "092140.635000",
        "092141.611000",
        "092142.632000",
        "092143.633000",
        "092144.624000",
        "092145.625000",
        "092146.616000",
        "092147.621000",
        "092148.643000",
        "092149.691000",
        "092150.642000",
        "092151.654000",
        "092152.662000",
        "092153.620000",
        "092154.638000",
        "092155.627000",
        "092156.627000",
        "092157.637000",
        "092158.633000",
        "092159.640000",
        "092200.614000",
        "092201.627000",
        "092202.631000",
        "092203.617000",
        "092204.625000",
        "092205.630000",
        "092206.630000",
        "092207.673000",
        "092208.635000",
        "092209.621000",
        "092210.609000",
        "092211.627000",
        "092212.634000",
        "092213.673000",
        "092214.623000",
        "092215.667000",
        "092216.613000",
        "092217.632000",
        "092218.626000",
        "092219.623000",
        "092220.623000",
        "092221.647000",
        "092222.635000",
        "092223.618000",
        "092224.619000",
        "092225.614000",
        "092226.616000",
        "092227.620000",
        "092228.619000",
        "092229.650000",
        "092230.616000",
        "092231.617000",
        "092232.633000",
        "092233.617000",
        "092234.658000",
        "092235.716000",
        "092236.610000",
        "092237.642000",
        "092238.637000",
        "092239.617000",
        "092240.623000",
        "092241.627000",
        "092242.627000",
        "092243.630000",
        "092244.625000",
        "092245.612000",
        "092246.627000",
        "092247.611000",
        "092248.632000",
        "092249.639000",
        "092250.650000",
        "092251.629000",
        "092252.653000",
        "092253.600000",
        "092254.635000",
        "092255.644000",
        "092256.650000",
        "092257.647000",
        "092258.630000",
        "092259.634000",
        "092300.629000",
        "092301.653000",
        "092302.639000",
        "092303.628000",
        "092304.634000",
        "092305.619000",
        "092306.681000",
        "092307.650000",
        "092308.634000",
        "092309.627000",
        "092310.646000",
        "092311.639000",
        "092312.654000",
        "092313.693000",
        "092314.683000",
        "092315.642000",
        "092316.616000",
        "092317.650000",
        "092318.652000",
        "092319.614000",
        "092320.604000",
        "092321.640000",
        "092322.625000",
        "092323.636000",
        "092324.649000",
        "092325.646000",
        "092326.654000",
        "092327.672000",
        "092328.620000",
        "092329.634000",
        "092330.623000",
        "092331.646000",
        "092332.614000",
        "092333.633000",
        "092334.658000",
        "092335.603000",
        "092336.638000",
        "092337.623000",
        "092338.691000",
        "092339.643000",
        "092340.630000",
        "092341.616000",
        "092342.633000",
        "092343.633000",
        "092344.665000",
        "092345.638000",
        "092346.629000",
        "092347.622000",
        "092348.621000",
        "092349.623000",
        "092350.630000",
        "092351.683000",
        "092352.641000",
        "092353.644000",
        "092354.623000",
        "092355.642000",
        "092356.612000",
        "092357.642000",
        "092358.662000",
        "092359.669000",
        "092400.620000",
        "092401.612000",
        "092402.620000",
        "092403.639000",
        "092404.633000",
        "092405.680000",
        "092406.625000",
        "092407.621000",
        "092408.643000",
        "092409.623000",
        "092410.659000",
        "092411.687000",
        "092412.650000",
        "092413.653000",
        "092414.624000",
        "092415.683000",
        "092416.622000",
        "092417.634000",
        "092418.648000",
        "092419.654000",
        "092420.675000",
        "092421.629000",
        "092422.646000",
        "092423.675000",
        "092424.652000",
        "092425.643000",
        "092426.660000",
        "092427.645000",
        "092428.645000",
        "092429.635000",
        "092430.628000",
        "092431.638000",
        "092432.655000",
        "092433.665000",
        "092434.645000",
        "092435.650000",
        "092436.660000",
        "092437.643000",
        "092438.626000",
        "092439.625000",
        "092440.623000",
        "092441.668000",
        "092442.635000",
        "092443.639000",
        "092444.629000",
        "092445.663000",
        "092446.682000",
        "092447.658000",
        "092448.652000",
        "092449.625000",
        "092450.646000",
        "092451.611000",
        "092452.683000",
        "092453.639000",
        "092454.636000",
        "092455.657000",
        "092456.627000",
        "092457.657000",
        "092458.612000",
        "092459.626000",
        "092500.652000",
        "092501.626000",
        "092502.642000",
        "092503.683000",
        "092504.676000",
        "092505.663000",
        "092506.633000",
        "092507.644000",
        "092508.638000",
        "092509.636000",
        "092510.619000",
        "092511.625000",
        "092512.679000",
        "092513.617000",
        "092514.611000",
        "092515.649000",
        "092516.645000",
        "092517.666000",
        "092518.645000",
        "092519.672000",
        "092520.657000",
        "092521.642000",
        "092522.625000",
        "092523.660000",
        "092524.637000",
        "092525.641000",
        "092526.645000",
        "092527.658000",
        "092528.619000",
        "092529.645000",
        "092530.605000",
        "092531.615000",
        "092532.634000",
        "092533.636000",
        "092534.630000",
        "092535.661000",
        "092536.640000",
        "092537.637000",
        "092538.631000",
        "092539.637000",
        "092540.700000",
        "092541.638000",
        "092542.662000",
        "092543.605000",
        "092544.642000",
        "092545.636000",
        "092546.619000",
        "092547.625000",
        "092548.610000",
        "092549.620000",
        "092550.623000",
        "092551.667000",
        "092552.625000",
        "092553.657000",
        "092554.638000",
        "092555.650000",
        "092556.645000",
        "092557.610000",
        "092558.657000",
        "092559.639000",
        "092600.647000",
        "092601.654000"
      ],
      "InstanceNumber": [
        1,
        2,
        3,
        4,
        5,
        6,
        7,
        8,
        9,
        10,
        11,
        12,
        13,
        14,
        15,
        16,
        17,
        18,
        19,
        20,
        21,
        22,
        23,
        24,
        25,
        26,
        27,
        28,
        29,
        30,
        31,
        32,
        33,
        34,
        35,
        36,
        37,
        38,
        39,
        40,
        41,
        42,
        43,
        44,
        45,
        46,
        47,
        48,
        49,
        50,
        51,
        52,
        53,
        54,
        55,
        56,
        57,
        58,
        59,
        60,
        61,
        62,
        63,
        64,
        65,
        66,
        67,
        68,
        69,
        70,
        71,
        72,
        73,
        74,
        75,
        76,
        77,
        78,
        79,
        80,
        81,
        82,
        83,
        84,
        85,
        86,
        87,
        88,
        89,
        90,
        91,
        92,
        93,
        94,
        95,
        96,
        97,
        98,
        99,
        100,
        101,
        102,
        103,
        104,
        105,
        106,
        107,
        108,
        109,
        110,
        111,
        112,
        113,
        114,
        115,
        116,
        117,
        118,
        119,
        120,
        121,
        122,
        123,
        124,
        125,
        126,
        127,
        128,
        129,
        130,
        131,
        132,
        133,
        134,
        135,
        136,
        137,
        138,
        139,
        140,
        141,
        142,
        143,
        144,
        145,
        146,
        147,
        148,
        149,
        150,
        151,
        152,
        153,
        154,
        155,
        156,
        157,
        158,
        159,
        160,
        161,
        162,
        163,
        164,
        165,
        166,
        167,
        168,
        169,
        170,
        171,
        172,
        173,
        174,
        175,
        176,
        177,
        178,
        179,
        180,
        181,
        182,
        183,
        184,
        185,
        186,
        187,
        188,
        189,
        190,
        191,
        192,
        193,
        194,
        195,
        196,
