{
  "AcquisitionMatrixPE": 96,
  "AcquisitionNumber": 1,
  "BandwidthPerPixelPhaseEncode": 18.939,
  "BaseResolution": 96,
  "BodyPartExamined": "BRAIN",
  "ConsistencyInfo": "N4_VE11C_LATEST_20160120",
  "ConversionSoftware": "dcm2niix",
  "ConversionSoftwareVersion": "v1.0.20170923 (OpenJPEG build) GCC6.3.0",
  "DerivedVendorReportedEchoSpacing": 0.000550011,
  "DeviceSerialNumber": "66112",
  "DwellTime": 2.2e-06,
  "EchoTime": 0.033,
  "EchoTrainLength": 96,
  "EffectiveEchoSpacing": 0.000550011,
  "FlipAngle": 59,
  "ImageType": [
    "ORIGINAL",
    "PRIMARY",
    "FMRI",
    "NONE",
    "ND",
    "NORM",
    "MOSAIC"
  ],
  "InstitutionAddress": "Maynard_3_Hanover_NH_US_03755",
  "InstitutionName": "Dartmouth_College_-_PBS",
  "MagneticFieldStrength": 3,
  "Manufacturer": "Siemens",
  "ManufacturersModelName": "Prisma",
  "Modality": "MR",
  "MultibandAccelerationFactor": 4,
  "PartialFourier": 1,
  "PercentPhaseFOV": 100,
  "PhaseEncodingDirection": "j-",
  "PhaseEncodingSteps": 96,
  "PhaseResolution": 1,
  "ProcedureStepDescription": "Gobbini_Matteo_1038_hyperface",
  "ProtocolName": "func_run-01_task-localizer",
  "PulseSequenceDetails": "%SiemensSeq%_ep2d_bold",
  "ReceiveCoilActiveElements": "HEA;HEP",
  "ReceiveCoilName": "Head_32",
  "ReconMatrixPE": 96,
  "RepetitionTime": 1,
  "ScanOptions": "FS",
  "ScanningSequence": "EP",
  "SequenceName": "_epfid2d1_96",
  "SequenceVariant": "SK",
  "SeriesDescription": "func_run-01_task-localizer",
  "SliceTiming": [
    0.735,
    0,
    0.49,
    0.08,
    0.57,
    0.1625,
    0.6525,
    0.325,
    0.815,
    0.4075,
    0.8975,
    0.245,
    0.735,
    0,
    0.49,
    0.08,
    0.57,
    0.1625,
    0.6525,
    0.325,
    0.815,
    0.4075,
    0.8975,
    0.245,
    0.735,
    0,
    0.49,
    0.08,
    0.57,
    0.1625,
    0.6525,
    0.325,
    0.815,
    0.4075,
    0.8975,
    0.245,
    0.735,
    0,
    0.49,
    0.08,
    0.57,
    0.1625,
    0.6525,
    0.325,
    0.815,
    0.4075,
    0.8975,
    0.245
  ],
  "SoftwareVersions": "syngo_MR_E11",
  "StationName": "AWP66112",
  "TotalReadoutTime": 0.0522511,
  "time": {
    "samples": {
      "AcquisitionNumber": [
        1,
        2,
        3,
        4,
        5,
        6,
        7,
        8,
        9,
        10,
        11,
        12,
        13,
        14,
        15,
        16,
        17,
        18,
        19,
        20,
        21,
        22,
        23,
        24,
        25,
        26,
        27,
        28,
        29,
        30,
        31,
        32,
        33,
        34,
        35,
        36,
        37,
        38,
        39,
        40,
        41,
        42,
        43,
        44,
        45,
        46,
        47,
        48,
        49,
        50,
        51,
        52,
        53,
        54,
        55,
        56,
        57,
        58,
        59,
        60,
        61,
        62,
        63,
        64,
        65,
        66,
        67,
        68,
        69,
        70,
        71,
        72,
        73,
        74,
        75,
        76,
        77,
        78,
        79,
        80,
        81,
        82,
        83,
        84,
        85,
        86,
        87,
        88,
        89,
        90,
        91,
        92,
        93,
        94,
        95,
        96,
        97,
        98,
        99,
        100,
        101,
        102,
        103,
        104,
        105,
        106,
        107,
        108,
        109,
        110,
        111,
        112,
        113,
        114,
        115,
        116,
        117,
        118,
        119,
        120,
        121,
        122,
        123,
        124,
        125,
        126,
        127,
        128,
        129,
        130,
        131,
        132,
        133,
        134,
        135,
        136,
        137,
        138,
        139,
        140,
        141,
        142,
        143,
        144,
        145,
        146,
        147,
        148,
        149,
        150,
        151,
        152,
        153,
        154,
        155,
        156,
        157,
        158,
        159,
        160,
        161,
        162,
        163,
        164,
        165,
        166,
        167,
        168,
        169,
        170,
        171,
        172,
        173,
        174,
        175,
        176,
        177,
        178,
        179,
        180,
        181,
        182,
        183,
        184,
        185,
        186,
        187,
        188,
        189,
        190,
        191,
        192,
        193,
        194,
        195,
        196,
        197,
        198,
        199,
        200,
        201,
        202,
        203,
        204,
        205,
        206,
        207,
        208,
        209,
        210,
        211,
        212,
        213,
        214,
        215,
        216,
        217,
        218,
        219,
        220,
        221,
        222,
        223,
        224,
        225,
        226,
        227,
        228,
        229,
        230,
        231,
        232,
        233,
        234,
        235,
        236
      ],
      "AcquisitionTime": [
        "091119.535000",
        "091120.535000",
        "091121.535000",
        "091122.535000",
        "091123.535000",
        "091124.535000",
        "091125.535000",
        "091126.535000",
        "091127.535000",
        "091128.535000",
        "091129.535000",
        "091130.535000",
        "091131.535000",
        "091132.535000",
        "091133.535000",
        "091134.535000",
        "091135.535000",
        "091136.535000",
        "091137.535000",
        "091138.535000",
        "091139.535000",
        "091140.535000",
        "091141.535000",
        "091142.535000",
        "091143.535000",
        "091144.535000",
        "091145.535000",
        "091146.535000",
        "091147.535000",
        "091148.535000",
        "091149.535000",
        "091150.535000",
        "091151.535000",
        "091152.535000",
        "091153.535000",
        "091154.535000",
        "091155.535000",
        "091156.535000",
        "091157.535000",
        "091158.535000",
        "091159.535000",
        "091200.535000",
        "091201.535000",
        "091202.535000",
        "091203.535000",
        "091204.535000",
        "091205.535000",
        "091206.535000",
        "091207.535000",
        "091208.535000",
        "091209.535000",
        "091210.535000",
        "091211.535000",
        "091212.535000",
        "091213.535000",
        "091214.535000",
        "091215.535000",
        "091216.535000",
        "091217.535000",
        "091218.535000",
        "091219.535000",
        "091220.535000",
        "091221.535000",
        "091222.535000",
        "091223.535000",
        "091224.535000",
        "091225.535000",
        "091226.535000",
        "091227.535000",
        "091228.535000",
        "091229.535000",
        "091230.535000",
        "091231.535000",
        "091232.535000",
        "091233.535000",
        "091234.535000",
        "091235.535000",
        "091236.535000",
        "091237.535000",
        "091238.535000",
        "091239.535000",
        "091240.535000",
        "091241.535000",
        "091242.535000",
        "091243.535000",
        "091244.535000",
        "091245.535000",
        "091246.535000",
        "091247.535000",
        "091248.535000",
        "091249.535000",
        "091250.535000",
        "091251.535000",
        "091252.535000",
        "091253.535000",
        "091254.535000",
        "091255.535000",
        "091256.535000",
        "091257.535000",
        "091258.535000",
        "091259.535000",
        "091300.535000",
        "091301.535000",
        "091302.535000",
        "091303.535000",
        "091304.535000",
        "091305.535000",
        "091306.535000",
        "091307.535000",
        "091308.535000",
        "091309.535000",
        "091310.535000",
        "091311.535000",
        "091312.535000",
        "091313.535000",
        "091314.535000",
        "091315.535000",
        "091316.535000",
        "091317.535000",
        "091318.535000",
        "091319.535000",
        "091320.535000",
        "091321.535000",
        "091322.535000",
        "091323.535000",
        "091324.535000",
        "091325.535000",
        "091326.535000",
        "091327.535000",
        "091328.535000",
        "091329.535000",
        "091330.535000",
        "091331.535000",
        "091332.535000",
        "091333.535000",
        "091334.535000",
        "091335.535000",
        "091336.535000",
        "091337.535000",
        "091338.535000",
        "091339.535000",
        "091340.535000",
        "091341.535000",
        "091342.535000",
        "091343.535000",
        "091344.535000",
        "091345.535000",
        "091346.535000",
        "091347.535000",
        "091348.535000",
        "091349.535000",
        "091350.535000",
        "091351.535000",
        "091352.535000",
        "091353.535000",
        "091354.535000",
        "091355.535000",
        "091356.535000",
        "091357.535000",
        "091358.535000",
        "091359.535000",
        "091400.535000",
        "091401.535000",
        "091402.535000",
        "091403.535000",
        "091404.535000",
        "091405.535000",
        "091406.535000",
        "091407.535000",
        "091408.535000",
        "091409.535000",
        "091410.535000",
        "091411.535000",
        "091412.535000",
        "091413.535000",
        "091414.535000",
        "091415.535000",
        "091416.535000",
        "091417.535000",
        "091418.535000",
        "091419.535000",
        "091420.535000",
        "091421.535000",
        "091422.535000",
        "091423.535000",
        "091424.535000",
        "091425.535000",
        "091426.535000",
        "091427.535000",
        "091428.535000",
        "091429.535000",
        "091430.535000",
        "091431.535000",
        "091432.535000",
        "091433.535000",
        "091434.535000",
        "091435.535000",
        "091436.535000",
        "091437.535000",
        "091438.535000",
        "091439.535000",
        "091440.535000",
        "091441.535000",
        "091442.535000",
        "091443.535000",
        "091444.535000",
        "091445.535000",
        "091446.535000",
        "091447.535000",
        "091448.535000",
        "091449.535000",
        "091450.535000",
        "091451.535000",
        "091452.535000",
        "091453.535000",
        "091454.535000",
        "091455.535000",
        "091456.535000",
        "091457.535000",
        "091458.535000",
        "091459.535000",
        "091500.535000",
        "091501.535000",
        "091502.535000",
        "091503.535000",
        "091504.535000",
        "091505.535000",
        "091506.535000",
        "091507.535000",
        "091508.535000",
        "091509.535000",
        "091510.535000",
        "091511.535000",
        "091512.535000",
        "091513.535000",
        "091514.535000"
      ],
      "ContentTime": [
        "091121.186000",
        "091122.064000",
        "091123.079000",
        "091124.059000",
        "091125.050000",
        "091126.062000",
        "091127.076000",
        "091128.026000",
        "091129.047000",
        "091130.056000",
        "091131.049000",
        "091132.047000",
        "091133.095000",
        "091134.044000",
        "091135.071000",
        "091136.065000",
        "091137.050000",
        "091138.028000",
        "091139.023000",
        "091140.061000",
        "091141.047000",
        "091142.039000",
        "091143.029000",
        "091144.012000",
        "091145.002000",
        "091146.061000",
        "091147.044000",
        "091148.019000",
        "091149.047000",
        "091150.023000",
        "091151.037000",
        "091152.029000",
        "091153.011000",
        "091154.037000",
        "091155.047000",
        "091156.002000",
        "091157.023000",
        "091158.033000",
        "091159.020000",
        "091200.034000",
        "091201.023000",
        "091202.022000",
        "091203.013000",
        "091204.054000",
        "091205.059000",
        "091206.039000",
        "091207.034000",
        "091208.030000",
        "091209.069000",
        "091210.054000",
        "091211.029000",
        "091211.997000",
        "091213.023000",
        "091214.018000",
        "091215.018000",
        "091216.016000",
        "091217.024000",
        "091218.029000",
        "091219.003000",
        "091220.013000",
        "091221.022000",
        "091222.045000",
        "091223.035000",
        "091224.023000",
        "091225.030000",
        "091226.049000",
        "091227.000000",
        "091228.037000",
        "091229.024000",
        "091230.035000",
        "091231.032000",
        "091232.026000",
        "091233.050000",
        "091234.022000",
        "091235.047000",
        "091236.038000",
        "091237.019000",
        "091238.017000",
        "091239.035000",
        "091240.032000",
        "091241.061000",
        "091242.022000",
        "091243.012000",
        "091244.013000",
        "091245.117000",
        "091246.043000",
        "091247.088000",
        "091248.025000",
        "091249.024000",
        "091250.028000",
        "091251.016000",
        "091252.042000",
        "091253.026000",
        "091254.070000",
        "091255.012000",
        "091256.019000",
        "091257.030000",
        "091258.068000",
        "091259.029000",
        "091300.056000",
        "091301.073000",
        "091302.017000",
        "091303.029000",
        "091304.074000",
        "091305.035000",
        "091306.065000",
        "091307.055000",
        "091308.049000",
        "091309.047000",
        "091310.038000",
        "091311.050000",
        "091312.035000",
        "091313.032000",
        "091314.031000",
        "091315.039000",
        "091316.026000",
        "091317.035000",
        "091318.078000",
        "091319.033000",
        "091320.018000",
        "091321.029000",
        "091322.062000",
        "091323.015000",
        "091324.043000",
        "091325.025000",
        "091326.076000",
        "091327.089000",
        "091328.079000",
        "091329.048000",
        "091330.027000",
        "091331.027000",
        "091332.070000",
        "091333.027000",
        "091334.036000",
        "091335.036000",
        "091336.036000",
        "091337.052000",
        "091338.043000",
        "091339.035000",
        "091340.024000",
        "091341.032000",
        "091342.047000",
        "091343.041000",
        "091344.039000",
        "091345.027000",
        "091346.059000",
        "091347.027000",
        "091348.019000",
        "091349.033000",
        "091350.036000",
        "091351.016000",
        "091352.037000",
        "091353.033000",
        "091354.034000",
        "091355.001000",
        "091356.044000",
        "091357.054000",
        "091358.032000",
        "091359.012000",
        "091400.044000",
        "091401.026000",
        "091402.007000",
        "091403.049000",
        "091404.038000",
        "091405.016000",
        "091406.067000",
        "091407.045000",
        "091408.031000",
        "091409.009000",
        "091410.044000",
        "091411.034000",
        "091412.037000",
        "091413.052000",
        "091414.029000",
        "091415.075000",
        "091416.044000",
        "091417.060000",
        "091418.056000",
        "091419.035000",
        "091420.035000",
        "091421.028000",
        "091422.023000",
        "091423.012000",
        "091424.033000",
        "091425.033000",
        "091426.060000",
        "091427.007000",
        "091428.037000",
        "091429.015000",
        "091430.035000",
        "091431.007000",
        "091432.050000",
        "091433.007000",
        "091434.024000",
        "091435.030000",
        "091436.061000",
        "091437.071000",
        "091438.045000",
        "091439.034000",
        "091440.040000",
        "091441.092000",
        "091442.037000",
        "091443.045000",
        "091444.024000",
        "091445.010000",
        "091446.051000",
        "091447.075000",
        "091448.077000",
        "091449.061000",
        "091450.016000",
        "091451.060000",
        "091452.036000",
        "091453.043000",
        "091454.051000",
        "091455.021000",
        "091456.015000",
        "091457.039000",
        "091458.042000",
        "091459.048000",
        "091500.042000",
        "091501.025000",
        "091502.010000",
        "091503.047000",
        "091504.030000",
        "091505.019000",
        "091506.019000",
        "091507.037000",
        "091508.044000",
        "091509.052000",
        "091510.024000",
        "091511.051000",
        "091512.023000",
        "091513.060000",
        "091514.045000",
        "091515.025000",
        "091516.060000"
      ],
      "InstanceCreationTime": [
        "091121.186000",
        "091122.064000",
        "091123.079000",
        "091124.059000",
        "091125.050000",
        "091126.062000",
        "091127.076000",
        "091128.026000",
        "091129.047000",
        "091130.056000",
        "091131.049000",
        "091132.047000",
        "091133.095000",
        "091134.044000",
        "091135.071000",
        "091136.065000",
        "091137.050000",
        "091138.028000",
        "091139.023000",
        "091140.061000",
        "091141.047000",
        "091142.039000",
        "091143.029000",
        "091144.012000",
        "091145.002000",
        "091146.061000",
        "091147.044000",
        "091148.019000",
        "091149.047000",
        "091150.023000",
        "091151.037000",
        "091152.029000",
        "091153.011000",
        "091154.037000",
        "091155.047000",
        "091156.002000",
        "091157.023000",
        "091158.033000",
        "091159.020000",
        "091200.034000",
        "091201.023000",
        "091202.022000",
        "091203.013000",
        "091204.054000",
        "091205.059000",
        "091206.039000",
        "091207.034000",
        "091208.030000",
        "091209.069000",
        "091210.054000",
        "091211.029000",
        "091211.997000",
        "091213.023000",
        "091214.018000",
        "091215.018000",
        "091216.016000",
        "091217.024000",
        "091218.029000",
        "091219.003000",
        "091220.013000",
        "091221.022000",
        "091222.045000",
        "091223.035000",
        "091224.023000",
        "091225.030000",
        "091226.049000",
        "091227.000000",
        "091228.037000",
        "091229.024000",
        "091230.035000",
        "091231.032000",
        "091232.026000",
        "091233.050000",
        "091234.022000",
        "091235.047000",
        "091236.038000",
        "091237.019000",
        "091238.017000",
        "091239.035000",
        "091240.032000",
        "091241.061000",
        "091242.022000",
        "091243.012000",
        "091244.013000",
        "091245.117000",
        "091246.043000",
        "091247.088000",
        "091248.025000",
        "091249.024000",
        "091250.028000",
        "091251.016000",
        "091252.042000",
        "091253.026000",
        "091254.070000",
        "091255.012000",
        "091256.019000",
        "091257.030000",
        "091258.068000",
        "091259.029000",
        "091300.056000",
        "091301.073000",
        "091302.017000",
        "091303.029000",
        "091304.074000",
        "091305.035000",
        "091306.065000",
        "091307.055000",
        "091308.049000",
        "091309.047000",
        "091310.038000",
        "091311.050000",
        "091312.035000",
        "091313.032000",
        "091314.031000",
        "091315.039000",
        "091316.026000",
        "091317.035000",
        "091318.078000",
        "091319.033000",
        "091320.018000",
        "091321.029000",
        "091322.062000",
        "091323.015000",
        "091324.043000",
        "091325.025000",
        "091326.076000",
        "091327.089000",
        "091328.079000",
        "091329.048000",
        "091330.027000",
        "091331.027000",
        "091332.070000",
        "091333.027000",
        "091334.036000",
        "091335.036000",
        "091336.036000",
        "091337.052000",
        "091338.043000",
        "091339.035000",
        "091340.024000",
        "091341.032000",
        "091342.047000",
        "091343.041000",
        "091344.039000",
        "091345.027000",
        "091346.059000",
        "091347.027000",
        "091348.019000",
        "091349.033000",
        "091350.036000",
        "091351.016000",
        "091352.037000",
        "091353.033000",
        "091354.034000",
        "091355.001000",
        "091356.044000",
        "091357.054000",
        "091358.032000",
        "091359.012000",
        "091400.044000",
        "091401.026000",
        "091402.007000",
        "091403.049000",
        "091404.038000",
        "091405.016000",
        "091406.067000",
        "091407.045000",
        "091408.031000",
        "091409.009000",
        "091410.044000",
        "091411.034000",
        "091412.037000",
        "091413.052000",
        "091414.029000",
        "091415.075000",
        "091416.044000",
        "091417.060000",
        "091418.056000",
        "091419.035000",
        "091420.035000",
        "091421.028000",
        "091422.023000",
        "091423.012000",
        "091424.033000",
        "091425.033000",
        "091426.060000",
        "091427.007000",
        "091428.037000",
        "091429.015000",
        "091430.035000",
        "091431.007000",
        "091432.050000",
        "091433.007000",
        "091434.024000",
        "091435.030000",
        "091436.061000",
        "091437.071000",
        "091438.045000",
        "091439.034000",
        "091440.040000",
        "091441.092000",
        "091442.037000",
        "091443.045000",
        "091444.024000",
        "091445.010000",
        "091446.051000",
        "091447.075000",
        "091448.077000",
        "091449.061000",
        "091450.016000",
        "091451.060000",
        "091452.036000",
        "091453.043000",
        "091454.051000",
        "091455.021000",
        "091456.015000",
        "091457.039000",
        "091458.042000",
        "091459.048000",
        "091500.042000",
        "091501.025000",
        "091502.010000",
        "091503.047000",
        "091504.030000",
        "091505.019000",
        "091506.019000",
        "091507.037000",
        "091508.044000",
        "091509.052000",
        "091510.024000",
        "091511.051000",
        "091512.023000",
        "091513.060000",
        "091514.045000",
        "091515.025000",
        "091516.060000"
      ],
      "InstanceNumber": [
        1,
        2,
        3,
        4,
        5,
        6,
        7,
        8,
        9,
        10,
        11,
        12,
        13,
        14,
        15,
        16,
        17,
        18,
        19,
        20,
        21,
        22,
        23,
        24,
        25,
        26,
        27,
        28,
        29,
        30,
        31,
        32,
        33,
        34,
        35,
        36,
        37,
        38,
        39,
        40,
        41,
        42,
        43,
        44,
        45,
        46,
        47,
        48,
        49,
        50,
        51,
        52,
        53,
        54,
        55,
        56,
        57,
        58,
        59,
        60,
        61,
        62,
        63,
        64,
        65,
        66,
        67,
        68,
        69,
        70,
        71,
        72,
        73,
        74,
        75,
        76,
        77,
        78,
        79,
        80,
        81,
        82,
        83,
        84,
        85,
        86,
        87,
        88,
        89,
        90,
        91,
        92,
        93,
        94,
        95,
        96,
        97,
        98,
        99,
        100,
        101,
        102,
        103,
        104,
        105,
        106,
        107,
        108,
        109,
        110,
        111,
        112,
        113,
        114,
        115,
        116,
        117,
        118,
        119,
        120,
        121,
        122,
        123,
        124,
        125,
        126,
        127,
        128,
        129,
        130,
        131,
        132,
        133,
        134,
        135,
        136,
        137,
        138,
        139,
        140,
        141,
        142,
        143,
        144,
        145,
        146,
        147,
        148,
        149,
        150,
        151,
        152,
        153,
        154,
        155,
        156,
        157,
        158,
        159,
        160,
        161,
        162,
        163,
        164,
        165,
        166,
        167,
        168,
        169,
        170,
        171,
        172,
        173,
        174,
        175,
        176,
        177,
        178,
        179,
        180,
        181,
        182,
        183,
        184,
        185,
        186,
        187,
        188,
        189,
        190,
        191,
        192,
        193,
        194,
        195,
        196,
        197,
        198,
        199,
        200,
        201,
        202,
        203,
        204,
        205,
        206,
        207,
        208,
        209,
        210,
        211,
        212,
        213,
        214,
        215,
        216,
        217,
        218,
        219,
        220,
        221,
        222,
        223,
        224,
        225,
        226,
        227,
        228,
        229,
        230,
        231,
        232,
        233,
        234,
        235,
        236
      ],
      "LargestImagePixelValue": [
        751,
        1087,
        734,
        726,
        1266,
        841,
        724,
        974,
        752,
        1028,
        1189,
        755,
        817,
        1249,
        711,
        708,
        928,
        724,
        699,
        861,
        1165,
        754,
        748,
        938,
        759,
        774,
        766,
        726,
        849,
        1062,
        701,
        891,
        1330,
        809,
        721,
        1283,
        878,
        718,
        1037,
        767,
        721,
        913,
        737,
        724,
        880,
        743,
        710,
        1273,
        1166,
        721,
        730,
        1232,
        769,
        705,
        748,
        866,
        745,
        720,
        1085,
        723,
        710,
        777,
        1285,
        786,
        713,
        1088,
        1323,
        926,
        721,
        1047,
        1088,
        911,
        725,
        973,
        1281,
        945,
        711,
        758,
        1013,
        711,
        710,
        711,
        841,
        1233,
        742,
        710,
        729,
        1159,
        730,
        711,
        723,
        1157,
        1136,
        779,
        713,
        1017,
        723,
        691,
        714,
        987,
        1212,
        863,
        784,
        1133,
        1131,
        706,
        697,
        937,
        1283,
        882,
        780,
        904,
        1272,
        814,
        714,
        1043,
        736,
        719,
        1041,
        766,
        1094,
        1230,
        763,
        714,
        1254,
        706,
        712,
        749,
        737,
        1191,
        715,
        720,
        1266,
        819,
        704,
        846,
        726,
        714,
        702,
        728,
        1195,
        1213,
        710,
        703,
        943,
        731,
        709,
        955,
        708,
        725,
        969,
        732,
        718,
        768,
        768,
        723,
        695,
        710,
        741,
        1241,
        1285,
        905,
        826,
        1313,
        984,
        709,
        976,
        984,
        1122,
        1227,
        929,
        1102,
        728,
        699,
        978,
        719,
        865,
        699,
        836,
        1341,
        962,
        738,
        975,
        719,
        771,
        707,
        744,
        713,
        704,
        795,
        709,
        748,
        694,
        711,
        1025,
        810,
        796,
        709,
        945,
        1315,
        1151,
        963,
        911,
        1057,
        734,
        769,
        698,
        813,
        1291,
        1255,
        943,
        1030,
        1222,
        722,
        721,
        741,
        1239,
        854,
        734,
        714,
        1101,
        1275,
        734,
        733,
        1009,
        728,
        738,
        731,
        707,
        740,
        1113,
        1109,
        703,
        720,
        1100,
        719
      ],
      "WindowCenter": [
        369,
        371,
        368,
        367,
        372,
        368,
        366,
        369,
        367,
        370,
        371,
        367,
        367,
        371,
        366,
        366,
        368,
        367,
        367,
        369,
        371,
        367,
        367,
        369,
        367,
        367,
        367,
        367,
        369,
        371,
        367,
        369,
        372,
        368,
        367,
        372,
        368,
        367,
        370,
        367,
        367,
        369,
        367,
        367,
        369,
        368,
        367,
        372,
        372,
        367,
        367,
        371,
        367,
        366,
        367,
        368,
        368,
        367,
        370,
        367,
        367,
        368,
        373,
        368,
        367,
        370,
