{
  "AcquisitionMatrixPE": 96,
  "AcquisitionNumber": 1,
  "BandwidthPerPixelPhaseEncode": 18.939,
  "BaseResolution": 96,
  "BodyPartExamined": "BRAIN",
  "ConsistencyInfo": "N4_VE11C_LATEST_20160120",
  "ConversionSoftware": "dcm2niix",
  "ConversionSoftwareVersion": "v1.0.20170923 (OpenJPEG build) GCC6.3.0",
  "DerivedVendorReportedEchoSpacing": 0.000550011,
  "DeviceSerialNumber": "66112",
  "DwellTime": 2.2e-06,
  "EchoTime": 0.033,
  "EchoTrainLength": 96,
  "EffectiveEchoSpacing": 0.000550011,
  "FlipAngle": 59,
  "ImageType": [
    "ORIGINAL",
    "PRIMARY",
    "FMRI",
    "NONE",
    "ND",
    "NORM",
    "MOSAIC"
  ],
  "InstitutionAddress": "Maynard_3_Hanover_NH_US_03755",
  "InstitutionName": "Dartmouth_College_-_PBS",
  "MagneticFieldStrength": 3,
  "Manufacturer": "Siemens",
  "ManufacturersModelName": "Prisma",
  "Modality": "MR",
  "MultibandAccelerationFactor": 4,
  "PercentPhaseFOV": 100,
  "PhaseEncodingDirection": "j-",
  "PhaseEncodingSteps": 96,
  "PhaseResolution": 1,
  "ProcedureStepDescription": "Gobbini_Matteo_1038_hyperface",
  "ProtocolName": "func_run-04_task-visualmemory",
  "PulseSequenceDetails": "%SiemensSeq%_ep2d_bold",
  "ReceiveCoilActiveElements": "HEA;HEP",
  "ReceiveCoilName": "Head_32",
  "ReconMatrixPE": 96,
  "RepetitionTime": 1,
  "ScanOptions": "FS",
  "ScanningSequence": "EP",
  "SequenceName": "_epfid2d1_96",
  "SequenceVariant": "SK",
  "SeriesDescription": "func_run-04_task-visualmemory",
  "SliceTiming": [
    0.735,
    0,
    0.49,
    0.08,
    0.57,
    0.1625,
    0.6525,
    0.325,
    0.815,
    0.4075,
    0.8975,
    0.245,
    0.735,
    0,
    0.49,
    0.08,
    0.57,
    0.1625,
    0.6525,
    0.325,
    0.815,
    0.4075,
    0.8975,
    0.245,
    0.735,
    0,
    0.49,
    0.08,
    0.57,
    0.1625,
    0.6525,
    0.325,
    0.815,
    0.4075,
    0.8975,
    0.245,
    0.735,
    0,
    0.49,
    0.08,
    0.57,
    0.1625,
    0.6525,
    0.325,
    0.815,
    0.4075,
    0.8975,
    0.245
  ],
  "SoftwareVersions": "syngo_MR_E11",
  "StationName": "AWP66112",
  "TotalReadoutTime": 0.0522511,
  "time": {
    "samples": {
      "AcquisitionNumber": [
        1,
        2,
        3,
        4,
        5,
        6,
        7,
        8,
        9,
        10,
        11,
        12,
        13,
        14,
        15,
        16,
        17,
        18,
        19,
        20,
        21,
        22,
        23,
        24,
        25,
        26,
        27,
        28,
        29,
        30,
        31,
        32,
        33,
        34,
        35,
        36,
        37,
        38,
        39,
        40,
        41,
        42,
        43,
        44,
        45,
        46,
        47,
        48,
        49,
        50,
        51,
        52,
        53,
        54,
        55,
        56,
        57,
        58,
        59,
        60,
        61,
        62,
        63,
        64,
        65,
        66,
        67,
        68,
        69,
        70,
        71,
        72,
        73,
        74,
        75,
        76,
        77,
        78,
        79,
        80,
        81,
        82,
        83,
        84,
        85,
        86,
        87,
        88,
        89,
        90,
        91,
        92,
        93,
        94,
        95,
        96,
        97,
        98,
        99,
        100,
        101,
        102,
        103,
        104,
        105,
        106,
        107,
        108,
        109,
        110,
        111,
        112,
        113,
        114,
        115,
        116,
        117,
        118,
        119,
        120,
        121,
        122,
        123,
        124,
        125,
        126,
        127,
        128,
        129,
        130,
        131,
        132,
        133,
        134,
        135,
        136,
        137,
        138,
        139,
        140,
        141,
        142,
        143,
        144,
        145,
        146,
        147,
        148,
        149,
        150,
        151,
        152,
        153,
        154,
        155,
        156,
        157,
        158,
        159,
        160,
        161,
        162,
        163,
        164,
        165,
        166,
        167,
        168,
        169,
        170,
        171,
        172,
        173,
        174,
        175,
        176,
        177,
        178,
        179,
        180,
        181,
        182,
        183,
        184,
        185,
        186,
        187,
        188,
        189,
        190,
        191,
        192,
        193,
        194,
        195,
        196,
        197,
        198,
        199,
        200,
        201,
        202,
        203,
        204,
        205,
        206,
        207,
        208,
        209,
        210,
        211,
        212,
        213,
        214,
        215,
        216,
        217,
        218,
        219,
        220,
        221,
        222,
        223,
        224,
        225,
        226,
        227,
        228,
        229,
        230,
        231,
        232,
        233,
        234,
        235,
        236,
        237,
        238,
        239,
        240,
        241,
        242,
        243,
        244,
        245,
        246,
        247,
        248,
        249,
        250,
        251,
        252,
        253,
        254,
        255,
        256,
        257,
        258,
        259,
        260,
        261,
        262,
        263,
        264,
        265,
        266,
        267,
        268,
        269,
        270,
        271,
        272,
        273,
        274,
        275,
        276,
        277,
        278,
        279,
        280,
        281,
        282,
        283,
        284,
        285,
        286,
        287,
        288
      ],
      "AcquisitionTime": [
        "092647.900000",
        "092648.900000",
        "092649.900000",
        "092650.900000",
        "092651.900000",
        "092652.900000",
        "092653.900000",
        "092654.900000",
        "092655.900000",
        "092656.900000",
        "092657.900000",
        "092658.900000",
        "092659.900000",
        "092700.900000",
        "092701.900000",
        "092702.900000",
        "092703.900000",
        "092704.900000",
        "092705.900000",
        "092706.900000",
        "092707.900000",
        "092708.900000",
        "092709.900000",
        "092710.900000",
        "092711.900000",
        "092712.900000",
        "092713.900000",
        "092714.900000",
        "092715.900000",
        "092716.900000",
        "092717.900000",
        "092718.900000",
        "092719.900000",
        "092720.900000",
        "092721.900000",
        "092722.900000",
        "092723.900000",
        "092724.900000",
        "092725.900000",
        "092726.900000",
        "092727.900000",
        "092728.900000",
        "092729.900000",
        "092730.900000",
        "092731.900000",
        "092732.900000",
        "092733.900000",
        "092734.900000",
        "092735.900000",
        "092736.900000",
        "092737.900000",
        "092738.900000",
        "092739.900000",
        "092740.900000",
        "092741.900000",
        "092742.900000",
        "092743.900000",
        "092744.900000",
        "092745.900000",
        "092746.900000",
        "092747.900000",
        "092748.900000",
        "092749.900000",
        "092750.900000",
        "092751.900000",
        "092752.900000",
        "092753.900000",
        "092754.900000",
        "092755.900000",
        "092756.900000",
        "092757.900000",
        "092758.900000",
        "092759.900000",
        "092800.900000",
        "092801.900000",
        "092802.900000",
        "092803.900000",
        "092804.900000",
        "092805.900000",
        "092806.900000",
        "092807.900000",
        "092808.900000",
        "092809.900000",
        "092810.900000",
        "092811.900000",
        "092812.900000",
        "092813.900000",
        "092814.900000",
        "092815.900000",
        "092816.900000",
        "092817.900000",
        "092818.900000",
        "092819.900000",
        "092820.900000",
        "092821.900000",
        "092822.900000",
        "092823.900000",
        "092824.900000",
        "092825.900000",
        "092826.900000",
        "092827.900000",
        "092828.900000",
        "092829.900000",
        "092830.900000",
        "092831.900000",
        "092832.900000",
        "092833.900000",
        "092834.900000",
        "092835.900000",
        "092836.900000",
        "092837.900000",
        "092838.900000",
        "092839.900000",
        "092840.900000",
        "092841.900000",
        "092842.900000",
        "092843.900000",
        "092844.900000",
        "092845.900000",
        "092846.900000",
        "092847.900000",
        "092848.900000",
        "092849.900000",
        "092850.900000",
        "092851.900000",
        "092852.900000",
        "092853.900000",
        "092854.900000",
        "092855.900000",
        "092856.900000",
        "092857.900000",
        "092858.900000",
        "092859.900000",
        "092900.900000",
        "092901.900000",
        "092902.900000",
        "092903.900000",
        "092904.900000",
        "092905.900000",
        "092906.900000",
        "092907.900000",
        "092908.900000",
        "092909.900000",
        "092910.900000",
        "092911.900000",
        "092912.900000",
        "092913.900000",
        "092914.900000",
        "092915.900000",
        "092916.900000",
        "092917.900000",
        "092918.900000",
        "092919.900000",
        "092920.900000",
        "092921.900000",
        "092922.900000",
        "092923.900000",
        "092924.900000",
        "092925.900000",
        "092926.900000",
        "092927.900000",
        "092928.900000",
        "092929.900000",
        "092930.900000",
        "092931.900000",
        "092932.900000",
        "092933.900000",
        "092934.900000",
        "092935.900000",
        "092936.900000",
        "092937.900000",
        "092938.900000",
        "092939.900000",
        "092940.900000",
        "092941.900000",
        "092942.900000",
        "092943.900000",
        "092944.900000",
        "092945.900000",
        "092946.900000",
        "092947.900000",
        "092948.900000",
        "092949.900000",
        "092950.900000",
        "092951.900000",
        "092952.900000",
        "092953.900000",
        "092954.900000",
        "092955.900000",
        "092956.900000",
        "092957.900000",
        "092958.900000",
        "092959.900000",
        "093000.900000",
        "093001.900000",
        "093002.900000",
        "093003.900000",
        "093004.900000",
        "093005.900000",
        "093006.900000",
        "093007.900000",
        "093008.900000",
        "093009.900000",
        "093010.900000",
        "093011.900000",
        "093012.900000",
        "093013.900000",
        "093014.900000",
        "093015.900000",
        "093016.900000",
        "093017.900000",
        "093018.900000",
        "093019.900000",
        "093020.900000",
        "093021.900000",
        "093022.900000",
        "093023.900000",
        "093024.900000",
        "093025.900000",
        "093026.900000",
        "093027.900000",
        "093028.900000",
        "093029.900000",
        "093030.900000",
        "093031.900000",
        "093032.900000",
        "093033.900000",
        "093034.900000",
        "093035.900000",
        "093036.900000",
        "093037.900000",
        "093038.900000",
        "093039.900000",
        "093040.900000",
        "093041.900000",
        "093042.900000",
        "093043.900000",
        "093044.900000",
        "093045.900000",
        "093046.900000",
        "093047.900000",
        "093048.900000",
        "093049.900000",
        "093050.900000",
        "093051.900000",
        "093052.900000",
        "093053.900000",
        "093054.900000",
        "093055.900000",
        "093056.900000",
        "093057.900000",
        "093058.900000",
        "093059.900000",
        "093100.900000",
        "093101.900000",
        "093102.900000",
        "093103.900000",
        "093104.900000",
        "093105.900000",
        "093106.900000",
        "093107.900000",
        "093108.900000",
        "093109.900000",
        "093110.900000",
        "093111.900000",
        "093112.900000",
        "093113.900000",
        "093114.900000",
        "093115.900000",
        "093116.900000",
        "093117.900000",
        "093118.900000",
        "093119.900000",
        "093120.900000",
        "093121.900000",
        "093122.900000",
        "093123.900000",
        "093124.900000",
        "093125.900000",
        "093126.900000",
        "093127.900000",
        "093128.900000",
        "093129.900000",
        "093130.900000",
        "093131.900000",
        "093132.900000",
        "093133.900000",
        "093134.900000"
      ],
      "ContentTime": [
        "092649.151000",
        "092649.955000",
        "092650.968000",
        "092651.993000",
        "092652.980000",
        "092653.955000",
        "092654.983000",
        "092655.968000",
        "092656.954000",
        "092657.985000",
        "092658.978000",
        "092659.976000",
        "092700.936000",
        "092701.954000",
        "092702.971000",
        "092703.938000",
        "092704.972000",
        "092705.976000",
        "092706.965000",
        "092707.949000",
        "092708.978000",
        "092709.980000",
        "092710.993000",
        "092712.002000",
        "092712.985000",
        "092713.976000",
        "092714.976000",
        "092715.949000",
        "092716.959000",
        "092717.983000",
        "092718.964000",
        "092719.967000",
        "092720.967000",
        "092721.981000",
        "092722.968000",
        "092723.981000",
        "092724.930000",
        "092725.982000",
        "092726.966000",
        "092727.982000",
        "092728.969000",
        "092729.968000",
        "092731.006000",
        "092731.972000",
        "092732.969000",
        "092733.978000",
        "092734.952000",
        "092735.971000",
        "092736.972000",
        "092738.042000",
        "092738.963000",
        "092739.978000",
        "092740.974000",
        "092741.955000",
        "092742.963000",
        "092743.968000",
        "092744.994000",
        "092745.965000",
        "092746.948000",
        "092747.978000",
        "092748.964000",
        "092749.964000",
        "092750.971000",
        "092751.972000",
        "092752.996000",
        "092753.962000",
        "092754.956000",
        "092755.966000",
        "092756.960000",
        "092757.967000",
        "092758.944000",
        "092759.967000",
        "092800.952000",
        "092801.979000",
        "092802.961000",
        "092803.967000",
        "092804.949000",
        "092805.970000",
        "092806.949000",
        "092807.967000",
        "092808.965000",
        "092809.959000",
        "092810.979000",
        "092811.958000",
        "092812.983000",
        "092813.968000",
        "092814.962000",
        "092815.962000",
        "092816.955000",
        "092818.014000",
        "092818.953000",
        "092819.972000",
        "092820.979000",
        "092821.969000",
        "092823.051000",
        "092823.949000",
        "092824.953000",
        "092825.996000",
        "092826.970000",
        "092827.955000",
        "092828.965000",
        "092829.964000",
        "092830.993000",
        "092831.964000",
        "092833.013000",
        "092833.984000",
        "092835.002000",
        "092835.995000",
        "092836.976000",
        "092837.975000",
        "092838.993000",
        "092839.969000",
        "092840.977000",
        "092842.025000",
        "092842.951000",
        "092843.974000",
        "092844.951000",
        "092845.975000",
        "092847.015000",
        "092847.990000",
        "092848.959000",
        "092849.979000",
        "092850.939000",
        "092851.958000",
        "092852.986000",
        "092853.966000",
        "092854.995000",
        "092855.949000",
        "092856.974000",
        "092857.954000",
        "092858.973000",
        "092859.961000",
        "092900.975000",
        "092901.982000",
        "092902.966000",
        "092903.971000",
        "092904.974000",
        "092905.997000",
        "092906.977000",
        "092907.961000",
        "092908.969000",
        "092909.993000",
        "092910.985000",
        "092911.977000",
        "092912.965000",
        "092914.007000",
        "092914.989000",
        "092915.985000",
        "092916.984000",
        "092917.948000",
        "092918.952000",
        "092920.002000",
        "092920.971000",
        "092921.960000",
        "092922.963000",
        "092923.964000",
        "092924.963000",
        "092925.991000",
        "092926.979000",
        "092927.970000",
        "092928.968000",
        "092929.967000",
        "092930.963000",
        "092931.965000",
        "092932.982000",
        "092933.964000",
        "092934.975000",
        "092935.989000",
        "092936.985000",
        "092937.995000",
        "092938.955000",
        "092939.967000",
        "092940.970000",
        "092941.991000",
        "092942.973000",
        "092943.994000",
        "092944.976000",
        "092945.966000",
        "092946.965000",
        "092947.985000",
        "092948.969000",
        "092949.991000",
        "092950.998000",
        "092951.957000",
        "092952.954000",
        "092953.983000",
        "092954.965000",
        "092955.951000",
        "092956.949000",
        "092957.990000",
        "092958.982000",
        "093000.054000",
        "093000.927000",
        "093001.964000",
        "093002.980000",
        "093003.977000",
        "093004.988000",
        "093005.961000",
        "093006.960000",
        "093007.949000",
        "093008.997000",
        "093009.981000",
        "093010.960000",
        "093011.953000",
        "093012.971000",
        "093013.989000",
        "093014.954000",
        "093015.950000",
        "093016.943000",
        "093017.971000",
        "093018.964000",
        "093019.956000",
        "093020.967000",
        "093021.970000",
        "093022.939000",
        "093023.969000",
        "093024.973000",
        "093025.963000",
        "093026.962000",
        "093027.970000",
        "093028.954000",
        "093029.976000",
        "093030.972000",
        "093031.993000",
        "093033.025000",
        "093033.981000",
        "093034.939000",
        "093036.018000",
        "093036.961000",
        "093037.978000",
        "093039.002000",
        "093039.968000",
        "093040.950000",
        "093041.972000",
        "093042.991000",
        "093043.988000",
        "093044.978000",
        "093045.986000",
        "093046.947000",
        "093047.995000",
        "093048.979000",
        "093049.976000",
        "093050.957000",
        "093051.972000",
        "093052.977000",
        "093053.990000",
        "093054.982000",
        "093055.969000",
        "093056.960000",
        "093057.974000",
        "093058.960000",
        "093059.970000",
        "093100.951000",
        "093101.967000",
        "093102.975000",
        "093103.968000",
        "093104.963000",
        "093105.971000",
        "093106.969000",
        "093107.939000",
        "093108.965000",
        "093109.962000",
        "093110.963000",
        "093111.975000",
        "093112.973000",
        "093113.937000",
        "093114.982000",
        "093115.986000",
        "093117.020000",
        "093117.956000",
        "093118.961000",
        "093119.956000",
        "093120.956000",
        "093122.034000",
        "093122.986000",
        "093123.983000",
        "093124.963000",
        "093125.973000",
        "093126.965000",
        "093127.953000",
        "093128.969000",
        "093129.945000",
        "093130.975000",
        "093131.943000",
        "093132.958000",
        "093133.960000",
        "093134.978000",
        "093135.995000"
      ],
      "InstanceCreationTime": [
        "092649.151000",
        "092649.955000",
        "092650.968000",
        "092651.993000",
        "092652.980000",
        "092653.955000",
        "092654.983000",
        "092655.968000",
        "092656.954000",
        "092657.985000",
        "092658.978000",
        "092659.976000",
        "092700.936000",
        "092701.954000",
        "092702.971000",
        "092703.938000",
        "092704.972000",
        "092705.976000",
        "092706.965000",
        "092707.949000",
        "092708.978000",
        "092709.980000",
        "092710.993000",
        "092712.002000",
        "092712.985000",
        "092713.976000",
        "092714.976000",
        "092715.949000",
        "092716.959000",
        "092717.983000",
        "092718.964000",
        "092719.967000",
        "092720.967000",
        "092721.981000",
        "092722.968000",
        "092723.981000",
        "092724.930000",
        "092725.982000",
        "092726.966000",
        "092727.982000",
        "092728.969000",
        "092729.968000",
        "092731.006000",
        "092731.972000",
        "092732.969000",
        "092733.978000",
        "092734.952000",
        "092735.971000",
        "092736.972000",
        "092738.042000",
        "092738.963000",
        "092739.978000",
        "092740.974000",
        "092741.955000",
        "092742.963000",
        "092743.968000",
        "092744.994000",
        "092745.965000",
        "092746.948000",
        "092747.978000",
        "092748.964000",
        "092749.964000",
        "092750.971000",
        "092751.972000",
        "092752.996000",
        "092753.962000",
        "092754.956000",
        "092755.966000",
        "092756.960000",
        "092757.967000",
        "092758.944000",
        "092759.967000",
        "092800.952000",
        "092801.979000",
        "092802.961000",
        "092803.967000",
        "092804.949000",
        "092805.970000",
        "092806.949000",
        "092807.967000",
        "092808.965000",
        "092809.959000",
        "092810.979000",
        "092811.958000",
        "092812.983000",
        "092813.968000",
        "092814.962000",
        "092815.962000",
        "092816.955000",
        "092818.014000",
        "092818.953000",
        "092819.972000",
        "092820.979000",
        "092821.969000",
        "092823.051000",
        "092823.949000",
        "092824.953000",
        "092825.996000",
        "092826.970000",
        "092827.955000",
        "092828.965000",
        "092829.964000",
        "092830.993000",
        "092831.964000",
        "092833.013000",
        "092833.984000",
        "092835.002000",
        "092835.995000",
        "092836.976000",
        "092837.975000",
        "092838.993000",
        "092839.969000",
        "092840.977000",
        "092842.025000",
        "092842.951000",
        "092843.974000",
        "092844.951000",
        "092845.975000",
        "092847.015000",
        "092847.990000",
        "092848.959000",
        "092849.979000",
        "092850.939000",
        "092851.958000",
        "092852.986000",
        "092853.966000",
        "092854.995000",
        "092855.949000",
        "092856.974000",
        "092857.954000",
        "092858.973000",
        "092859.961000",
        "092900.975000",
        "092901.982000",
        "092902.966000",
        "092903.971000",
        "092904.974000",
        "092905.997000",
        "092906.977000",
        "092907.961000",
        "092908.969000",
        "092909.993000",
        "092910.985000",
        "092911.977000",
        "092912.965000",
        "092914.007000",
        "092914.989000",
        "092915.985000",
        "092916.984000",
        "092917.948000",
        "092918.952000",
        "092920.002000",
        "092920.971000",
        "092921.960000",
        "092922.963000",
        "092923.964000",
        "092924.963000",
        "092925.991000",
        "092926.979000",
        "092927.970000",
        "092928.968000",
        "092929.967000",
        "092930.963000",
        "092931.965000",
        "092932.982000",
        "092933.964000",
        "092934.975000",
        "092935.989000",
        "092936.985000",
        "092937.995000",
        "092938.955000",
        "092939.967000",
        "092940.970000",
        "092941.991000",
        "092942.973000",
        "092943.994000",
        "092944.976000",
        "092945.966000",
        "092946.965000",
        "092947.985000",
        "092948.969000",
        "092949.991000",
        "092950.998000",
        "092951.957000",
        "092952.954000",
        "092953.983000",
        "092954.965000",
        "092955.951000",
        "092956.949000",
        "092957.990000",
        "092958.982000",
        "093000.054000",
        "093000.927000",
        "093001.964000",
        "093002.980000",
        "093003.977000",
        "093004.988000",
        "093005.961000",
        "093006.960000",
        "093007.949000",
        "093008.997000",
        "093009.981000",
        "093010.960000",
        "093011.953000",
        "093012.971000",
        "093013.989000",
        "093014.954000",
        "093015.950000",
        "093016.943000",
        "093017.971000",
        "093018.964000",
        "093019.956000",
        "093020.967000",
        "093021.970000",
        "093022.939000",
        "093023.969000",
        "093024.973000",
        "093025.963000",
        "093026.962000",
        "093027.970000",
        "093028.954000",
        "093029.976000",
        "093030.972000",
        "093031.993000",
        "093033.025000",
        "093033.981000",
        "093034.939000",
        "093036.018000",
        "093036.961000",
        "093037.978000",
        "093039.002000",
        "093039.968000",
        "093040.950000",
        "093041.972000",
        "093042.991000",
        "093043.988000",
        "093044.978000",
        "093045.986000",
        "093046.947000",
        "093047.995000",
        "093048.979000",
        "093049.976000",
        "093050.957000",
        "093051.972000",
        "093052.977000",
        "093053.990000",
        "093054.982000",
        "093055.969000",
        "093056.960000",
        "093057.974000",
        "093058.960000",
        "093059.970000",
        "093100.951000",
        "093101.967000",
        "093102.975000",
        "093103.968000",
        "093104.963000",
        "093105.971000",
        "093106.969000",
        "093107.939000",
        "093108.965000",
        "093109.962000",
        "093110.963000",
        "093111.975000",
        "093112.973000",
        "093113.937000",
        "093114.982000",
        "093115.986000",
        "093117.020000",
        "093117.956000",
        "093118.961000",
        "093119.956000",
        "093120.956000",
        "093122.034000",
        "093122.986000",
        "093123.983000",
        "093124.963000",
        "093125.973000",
        "093126.965000",
        "093127.953000",
        "093128.969000",
        "093129.945000",
        "093130.975000",
        "093131.943000",
        "093132.958000",
        "093133.960000",
        "093134.978000",
        "093135.995000"
      ],
      "InstanceNumber": [
        1,
        2,
        3,
        4,
        5,
        6,
        7,
        8,
        9,
        10,
        11,
        12,
        13,
        14,
        15,
        16,
        17,
        18,
        19,
        20,
        21,
        22,
        23,
        24,
        25,
        26,
        27,
        28,
        29,
        30,
        31,
        32,
        33,
        34,
        35,
        36,
        37,
        38,
        39,
        40,
        41,
        42,
        43,
        44,
        45,
        46,
        47,
        48,
        49,
        50,
        51,
        52,
        53,
        54,
        55,
        56,
        57,
        58,
        59,
        60,
        61,
        62,
        63,
        64,
        65,
        66,
        67,
        68,
        69,
        70,
        71,
        72,
        73,
        74,
        75,
        76,
        77,
        78,
        79,
        80,
        81,
        82,
        83,
        84,
        85,
        86,
        87,
        88,
        89,
        90,
        91,
        92,
        93,
        94,
        95,
        96,
        97,
        98,
        99,
        100,
        101,
        102,
        103,
        104,
        105,
        106,
        107,
        108,
        109,
        110,
        111,
        112,
        113,
        114,
        115,
        116,
        117,
        118,
        119,
        120,
        121,
        122,
        123,
        124,
        125,
        126,
        127,
        128,
        129,
        130,
        131,
        132,
        133,
        134,
        135,
        136,
        137,
        138,
        139,
        140,
        141,
        142,
        143,
        144,
        145,
        146,
        147,
        148,
        149,
        150,
        151,
        152,
        153,
        154,
        155,
        156,
        157,
        158,
        159,
        160,
        161,
        162,
        163,
        164,
        165,
        166,
        167,
        168,
        169,
        170,
        171,
        172,
        173,
        174,
        175,
        176,
        177,
        178,
        179,
        180,
        181,
        182,
        183,
        184,
        185,
        186,
        187,
        188,
        189,
        190,
        191,
        192,
        193,
        194,
        195,
        196,
        197,
        198,
