{
  "AcquisitionMatrixPE": 96,
  "AcquisitionNumber": 1,
  "BandwidthPerPixelPhaseEncode": 18.939,
  "BaseResolution": 96,
  "BodyPartExamined": "BRAIN",
  "ConsistencyInfo": "N4_VE11C_LATEST_20160120",
  "ConversionSoftware": "dcm2niix",
  "ConversionSoftwareVersion": "v1.0.20171215 (OpenJPEG build) GCC6.3.0",
  "DerivedVendorReportedEchoSpacing": 0.000550011,
  "DeviceSerialNumber": "66112",
  "DwellTime": 2.2e-06,
  "EchoTime": 0.033,
  "EchoTrainLength": 96,
  "EffectiveEchoSpacing": 0.000550011,
  "FlipAngle": 59,
  "ImageOrientationPatientDICOM": [
    0.999287,
    0.0340023,
    -0.0164387,
    -0.0359436,
    0.989843,
    -0.137547
  ],
  "ImageType": [
    "ORIGINAL",
    "PRIMARY",
    "FMRI",
    "NONE",
    "ND",
    "NORM",
    "MOSAIC"
  ],
  "InPlanePhaseEncodingDirectionDICOM": "COL",
  "InstitutionAddress": "Maynard_3_Hanover_NH_US_03755",
  "InstitutionName": "Dartmouth_College_-_PBS",
  "InstitutionalDepartmentName": "Department",
  "MRAcquisitionType": "2D",
  "MagneticFieldStrength": 3,
  "Manufacturer": "Siemens",
  "ManufacturersModelName": "Prisma",
  "Modality": "MR",
  "MultibandAccelerationFactor": 4,
  "PatientPosition": "HFS",
  "PercentPhaseFOV": 100,
  "PhaseEncodingDirection": "j-",
  "PhaseEncodingSteps": 96,
  "PhaseResolution": 1,
  "PixelBandwidth": 2365,
  "ProcedureStepDescription": "Gobbini_Matteo_1038_hyperface",
  "ProtocolName": "func_run-07_task-visualmemory",
  "PulseSequenceDetails": "%SiemensSeq%_ep2d_bold",
  "ReceiveCoilActiveElements": "HEA;HEP",
  "ReceiveCoilName": "Head_32",
  "ReconMatrixPE": 96,
  "RepetitionTime": 1,
  "SAR": 0.0518448,
  "ScanOptions": "FS",
  "ScanningSequence": "EP",
  "SequenceName": "_epfid2d1_96",
  "SequenceVariant": "SK",
  "SeriesDescription": "func_run-07_task-visualmemory",
  "SeriesNumber": 50,
  "ShimSetting": [
    4146,
    -7683,
    -7289,
    532,
    -29,
    16,
    66,
    106
  ],
  "SliceThickness": 2.5,
  "SliceTiming": [
    0.735,
    0,
    0.49,
    0.08,
    0.57,
    0.1625,
    0.6525,
    0.325,
    0.815,
    0.4075,
    0.8975,
    0.245,
    0.735,
    0,
    0.49,
    0.08,
    0.57,
    0.1625,
    0.6525,
    0.325,
    0.815,
    0.4075,
    0.8975,
    0.245,
    0.735,
    0,
    0.49,
    0.08,
    0.57,
    0.1625,
    0.6525,
    0.325,
    0.815,
    0.4075,
    0.8975,
    0.245,
    0.735,
    0,
    0.49,
    0.08,
    0.57,
    0.1625,
    0.6525,
    0.325,
    0.815,
    0.4075,
    0.8975,
    0.245
  ],
  "SoftwareVersions": "syngo_MR_E11",
  "SpacingBetweenSlices": 2.5,
  "StationName": "AWP66112",
  "TotalReadoutTime": 0.0522511,
  "TxRefAmp": 244.909,
  "time": {
    "samples": {
      "AcquisitionNumber": [
        1,
        2,
        3,
        4,
        5,
        6,
        7,
        8,
        9,
        10,
        11,
        12,
        13,
        14,
        15,
        16,
        17,
        18,
        19,
        20,
        21,
        22,
        23,
        24,
        25,
        26,
        27,
        28,
        29,
        30,
        31,
        32,
        33,
        34,
        35,
        36,
        37,
        38,
        39,
        40,
        41,
        42,
        43,
        44,
        45,
        46,
        47,
        48,
        49,
        50,
        51,
        52,
        53,
        54,
        55,
        56,
        57,
        58,
        59,
        60,
        61,
        62,
        63,
        64,
        65,
        66,
        67,
        68,
        69,
        70,
        71,
        72,
        73,
        74,
        75,
        76,
        77,
        78,
        79,
        80,
        81,
        82,
        83,
        84,
        85,
        86,
        87,
        88,
        89,
        90,
        91,
        92,
        93,
        94,
        95,
        96,
        97,
        98,
        99,
        100,
        101,
        102,
        103,
        104,
        105,
        106,
        107,
        108,
        109,
        110,
        111,
        112,
        113,
        114,
        115,
        116,
        117,
        118,
        119,
        120,
        121,
        122,
        123,
        124,
        125,
        126,
        127,
        128,
        129,
        130,
        131,
        132,
        133,
        134,
        135,
        136,
        137,
        138,
        139,
        140,
        141,
        142,
        143,
        144,
        145,
        146,
        147,
        148,
        149,
        150,
        151,
        152,
        153,
        154,
        155,
        156,
        157,
        158,
        159,
        160,
        161,
        162,
        163,
        164,
        165,
        166,
        167,
        168,
        169,
        170,
        171,
        172,
        173,
        174,
        175,
        176,
        177,
        178,
        179,
        180,
        181,
        182,
        183,
        184,
        185,
        186,
        187,
        188,
        189,
        190,
        191,
        192,
        193,
        194,
        195,
        196,
        197,
        198,
        199,
        200,
        201,
        202,
        203,
        204,
        205,
        206,
        207,
        208,
        209,
        210,
        211,
        212,
        213,
        214,
        215,
        216,
        217,
        218,
        219,
        220,
        221,
        222,
        223,
        224,
        225,
        226,
        227,
        228,
        229,
        230,
        231,
        232,
        233,
        234,
        235,
        236,
        237,
        238,
        239,
        240,
        241,
        242,
        243,
        244,
        245,
        246,
        247,
        248,
        249,
        250,
        251,
        252,
        253,
        254,
        255,
        256,
        257,
        258,
        259,
        260,
        261,
        262,
        263,
        264,
        265,
        266,
        267,
        268,
        269,
        270,
        271,
        272,
        273,
        274,
        275,
        276,
        277,
        278,
        279,
        280,
        281,
        282,
        283,
        284,
        285,
        286,
        287,
        288
      ],
      "AcquisitionTime": [
        "194241.097500",
        "194242.097500",
        "194243.097500",
        "194244.097500",
        "194245.097500",
        "194246.097500",
        "194247.097500",
        "194248.097500",
        "194249.097500",
        "194250.097500",
        "194251.097500",
        "194252.097500",
        "194253.097500",
        "194254.097500",
        "194255.097500",
        "194256.097500",
        "194257.097500",
        "194258.097500",
        "194259.097500",
        "194300.097500",
        "194301.097500",
        "194302.097500",
        "194303.097500",
        "194304.097500",
        "194305.097500",
        "194306.097500",
        "194307.097500",
        "194308.097500",
        "194309.097500",
        "194310.097500",
        "194311.097500",
        "194312.097500",
        "194313.097500",
        "194314.097500",
        "194315.097500",
        "194316.097500",
        "194317.097500",
        "194318.097500",
        "194319.097500",
        "194320.097500",
        "194321.097500",
        "194322.097500",
        "194323.097500",
        "194324.097500",
        "194325.097500",
        "194326.097500",
        "194327.097500",
        "194328.097500",
        "194329.097500",
        "194330.097500",
        "194331.097500",
        "194332.097500",
        "194333.097500",
        "194334.097500",
        "194335.097500",
        "194336.097500",
        "194337.097500",
        "194338.097500",
        "194339.097500",
        "194340.097500",
        "194341.097500",
        "194342.097500",
        "194343.097500",
        "194344.097500",
        "194345.097500",
        "194346.097500",
        "194347.097500",
        "194348.097500",
        "194349.097500",
        "194350.097500",
        "194351.097500",
        "194352.097500",
        "194353.097500",
        "194354.097500",
        "194355.097500",
        "194356.097500",
        "194357.097500",
        "194358.097500",
        "194359.097500",
        "194400.097500",
        "194401.097500",
        "194402.097500",
        "194403.097500",
        "194404.097500",
        "194405.097500",
        "194406.097500",
        "194407.097500",
        "194408.097500",
        "194409.097500",
        "194410.097500",
        "194411.097500",
        "194412.097500",
        "194413.097500",
        "194414.097500",
        "194415.097500",
        "194416.097500",
        "194417.097500",
        "194418.097500",
        "194419.097500",
        "194420.097500",
        "194421.097500",
        "194422.097500",
        "194423.097500",
        "194424.097500",
        "194425.097500",
        "194426.097500",
        "194427.097500",
        "194428.097500",
        "194429.097500",
        "194430.097500",
        "194431.097500",
        "194432.097500",
        "194433.097500",
        "194434.097500",
        "194435.097500",
        "194436.097500",
        "194437.097500",
        "194438.097500",
        "194439.097500",
        "194440.097500",
        "194441.097500",
        "194442.097500",
        "194443.097500",
        "194444.097500",
        "194445.097500",
        "194446.097500",
        "194447.097500",
        "194448.097500",
        "194449.097500",
        "194450.097500",
        "194451.097500",
        "194452.097500",
        "194453.097500",
        "194454.097500",
        "194455.097500",
        "194456.097500",
        "194457.097500",
        "194458.097500",
        "194459.097500",
        "194500.097500",
        "194501.097500",
        "194502.097500",
        "194503.097500",
        "194504.097500",
        "194505.097500",
        "194506.097500",
        "194507.097500",
        "194508.097500",
        "194509.097500",
        "194510.097500",
        "194511.097500",
        "194512.097500",
        "194513.097500",
        "194514.097500",
        "194515.097500",
        "194516.097500",
        "194517.097500",
        "194518.097500",
        "194519.097500",
        "194520.097500",
        "194521.097500",
        "194522.097500",
        "194523.097500",
        "194524.097500",
        "194525.097500",
        "194526.097500",
        "194527.097500",
        "194528.097500",
        "194529.097500",
        "194530.097500",
        "194531.097500",
        "194532.097500",
        "194533.097500",
        "194534.097500",
        "194535.097500",
        "194536.097500",
        "194537.097500",
        "194538.097500",
        "194539.097500",
        "194540.097500",
        "194541.097500",
        "194542.097500",
        "194543.097500",
        "194544.097500",
        "194545.097500",
        "194546.097500",
        "194547.097500",
        "194548.097500",
        "194549.097500",
        "194550.097500",
        "194551.097500",
        "194552.097500",
        "194553.097500",
        "194554.097500",
        "194555.097500",
        "194556.097500",
        "194557.097500",
        "194558.097500",
        "194559.097500",
        "194600.097500",
        "194601.097500",
        "194602.097500",
        "194603.097500",
        "194604.097500",
        "194605.097500",
        "194606.097500",
        "194607.097500",
        "194608.097500",
        "194609.097500",
        "194610.097500",
        "194611.097500",
        "194612.097500",
        "194613.097500",
        "194614.097500",
        "194615.097500",
        "194616.097500",
        "194617.097500",
        "194618.097500",
        "194619.097500",
        "194620.097500",
        "194621.097500",
        "194622.097500",
        "194623.097500",
        "194624.097500",
        "194625.097500",
        "194626.097500",
        "194627.097500",
        "194628.097500",
        "194629.097500",
        "194630.097500",
        "194631.097500",
        "194632.097500",
        "194633.097500",
        "194634.097500",
        "194635.097500",
        "194636.097500",
        "194637.097500",
        "194638.097500",
        "194639.097500",
        "194640.097500",
        "194641.097500",
        "194642.097500",
        "194643.097500",
        "194644.097500",
        "194645.097500",
        "194646.097500",
        "194647.097500",
        "194648.097500",
        "194649.097500",
        "194650.097500",
        "194651.097500",
        "194652.097500",
        "194653.097500",
        "194654.097500",
        "194655.097500",
        "194656.097500",
        "194657.097500",
        "194658.097500",
        "194659.097500",
        "194700.097500",
        "194701.097500",
        "194702.097500",
        "194703.097500",
        "194704.097500",
        "194705.097500",
        "194706.097500",
        "194707.097500",
        "194708.097500",
        "194709.097500",
        "194710.097500",
        "194711.097500",
        "194712.097500",
        "194713.097500",
        "194714.097500",
        "194715.097500",
        "194716.097500",
        "194717.097500",
        "194718.097500",
        "194719.097500",
        "194720.097500",
        "194721.097500",
        "194722.097500",
        "194723.097500",
        "194724.097500",
        "194725.097500",
        "194726.097500",
        "194727.097500",
        "194728.097500"
      ],
      "ContentTime": [
        "194242.233000",
        "194243.059000",
        "194244.040000",
        "194245.045000",
        "194246.081000",
        "194247.069000",
        "194248.050000",
        "194249.049000",
        "194250.044000",
        "194251.069000",
        "194252.058000",
        "194253.040000",
        "194254.047000",
        "194255.047000",
        "194256.033000",
        "194257.052000",
        "194258.045000",
        "194259.024000",
        "194300.037000",
        "194301.034000",
        "194302.040000",
        "194303.039000",
        "194304.031000",
        "194305.032000",
        "194306.022000",
        "194307.045000",
        "194308.044000",
        "194309.035000",
        "194310.042000",
        "194311.038000",
        "194312.062000",
        "194313.050000",
        "194314.067000",
        "194315.041000",
        "194316.139000",
        "194317.054000",
        "194318.053000",
        "194319.049000",
        "194320.074000",
        "194321.061000",
        "194322.032000",
        "194323.042000",
        "194324.038000",
        "194325.030000",
        "194326.035000",
        "194327.051000",
        "194328.053000",
        "194329.062000",
        "194330.037000",
        "194331.041000",
        "194332.077000",
        "194333.044000",
        "194334.036000",
        "194335.055000",
        "194336.036000",
        "194337.039000",
        "194338.049000",
        "194339.115000",
        "194340.083000",
        "194341.028000",
        "194342.045000",
        "194343.058000",
        "194344.062000",
        "194345.069000",
        "194346.045000",
        "194347.052000",
        "194348.073000",
        "194349.047000",
        "194350.046000",
        "194351.057000",
        "194352.069000",
        "194353.064000",
        "194354.038000",
        "194355.058000",
        "194356.013000",
        "194357.058000",
        "194358.047000",
        "194359.039000",
        "194400.052000",
        "194401.049000",
        "194402.076000",
        "194403.057000",
        "194404.100000",
        "194405.071000",
        "194406.054000",
        "194407.053000",
        "194408.060000",
        "194409.051000",
        "194410.031000",
        "194411.044000",
        "194412.059000",
        "194413.036000",
        "194414.026000",
        "194415.047000",
        "194416.053000",
        "194417.141000",
        "194418.070000",
        "194419.069000",
        "194420.062000",
        "194421.058000",
        "194422.058000",
        "194423.080000",
        "194424.102000",
        "194425.082000",
        "194426.038000",
        "194427.055000",
        "194428.105000",
        "194429.052000",
        "194430.047000",
        "194431.058000",
        "194432.134000",
        "194433.056000",
        "194434.065000",
        "194435.066000",
        "194436.066000",
        "194437.033000",
        "194438.058000",
        "194439.085000",
        "194440.016000",
        "194441.064000",
        "194442.040000",
        "194443.031000",
        "194444.049000",
        "194445.059000",
        "194446.029000",
        "194447.074000",
        "194448.038000",
        "194449.053000",
        "194450.074000",
        "194451.070000",
        "194452.048000",
        "194453.042000",
        "194454.061000",
        "194455.044000",
        "194456.078000",
        "194457.048000",
        "194458.064000",
        "194459.028000",
        "194500.038000",
        "194501.065000",
        "194502.049000",
        "194503.065000",
        "194504.045000",
        "194505.057000",
        "194506.049000",
        "194507.093000",
        "194508.055000",
        "194509.067000",
        "194510.056000",
        "194511.062000",
        "194512.060000",
        "194513.060000",
        "194514.040000",
        "194515.045000",
        "194516.059000",
        "194517.039000",
        "194518.030000",
        "194519.053000",
        "194520.093000",
        "194521.073000",
        "194522.053000",
        "194523.058000",
        "194524.050000",
        "194525.101000",
        "194526.054000",
        "194527.051000",
        "194528.061000",
        "194529.059000",
        "194530.087000",
        "194531.143000",
        "194532.061000",
        "194533.064000",
        "194534.125000",
        "194535.050000",
        "194536.047000",
        "194537.039000",
        "194538.114000",
        "194539.059000",
        "194540.043000",
        "194541.067000",
        "194542.037000",
        "194543.091000",
        "194544.029000",
        "194545.060000",
        "194546.054000",
        "194547.059000",
        "194548.066000",
        "194549.047000",
        "194550.047000",
        "194551.058000",
        "194552.033000",
        "194553.067000",
        "194554.029000",
        "194555.064000",
        "194556.065000",
        "194557.042000",
        "194558.041000",
        "194559.065000",
        "194600.039000",
        "194601.076000",
        "194602.051000",
        "194603.087000",
        "194604.073000",
        "194605.089000",
        "194606.046000",
        "194607.051000",
        "194608.061000",
        "194609.051000",
        "194610.094000",
        "194611.063000",
        "194612.004000",
        "194613.050000",
        "194614.074000",
        "194615.084000",
        "194616.050000",
        "194617.065000",
        "194618.071000",
        "194619.060000",
        "194620.016000",
        "194621.048000",
        "194622.041000",
        "194623.100000",
        "194624.061000",
        "194625.060000",
        "194626.037000",
        "194627.043000",
        "194628.082000",
        "194629.042000",
        "194630.080000",
        "194631.038000",
        "194632.043000",
        "194633.059000",
        "194634.046000",
        "194635.055000",
        "194636.063000",
        "194637.050000",
        "194638.070000",
        "194639.050000",
        "194640.023000",
        "194641.033000",
        "194642.062000",
        "194643.019000",
        "194644.068000",
        "194645.068000",
        "194646.048000",
        "194647.034000",
        "194648.023000",
        "194649.061000",
        "194650.052000",
        "194651.045000",
        "194652.091000",
        "194653.038000",
        "194654.031000",
        "194655.050000",
        "194656.061000",
        "194657.033000",
        "194658.040000",
        "194659.038000",
        "194700.020000",
        "194701.052000",
        "194702.066000",
        "194703.047000",
        "194704.044000",
        "194705.071000",
        "194706.052000",
        "194707.064000",
        "194708.052000",
        "194709.061000",
        "194710.069000",
        "194711.067000",
        "194712.113000",
        "194713.063000",
        "194714.071000",
        "194715.037000",
        "194716.066000",
        "194717.062000",
        "194718.036000",
        "194719.052000",
        "194720.042000",
        "194721.035000",
        "194722.054000",
        "194723.044000",
        "194724.062000",
        "194725.061000",
        "194726.064000",
        "194727.042000",
        "194728.040000",
        "194729.079000"
      ],
      "InstanceCreationTime": [
        "194242.233000",
        "194243.059000",
        "194244.040000",
        "194245.045000",
        "194246.081000",
        "194247.069000",
        "194248.050000",
        "194249.049000",
        "194250.044000",
        "194251.069000",
        "194252.058000",
        "194253.040000",
        "194254.047000",
        "194255.047000",
        "194256.033000",
        "194257.052000",
        "194258.045000",
        "194259.024000",
        "194300.037000",
        "194301.034000",
        "194302.040000",
        "194303.039000",
        "194304.031000",
        "194305.032000",
        "194306.022000",
        "194307.045000",
        "194308.044000",
        "194309.035000",
        "194310.042000",
        "194311.038000",
        "194312.062000",
        "194313.050000",
        "194314.067000",
        "194315.041000",
        "194316.139000",
        "194317.054000",
        "194318.053000",
        "194319.049000",
        "194320.074000",
        "194321.061000",
        "194322.032000",
        "194323.042000",
        "194324.038000",
        "194325.030000",
        "194326.035000",
        "194327.051000",
        "194328.053000",
        "194329.062000",
        "194330.037000",
        "194331.041000",
        "194332.077000",
        "194333.044000",
        "194334.036000",
        "194335.055000",
        "194336.036000",
        "194337.039000",
        "194338.049000",
        "194339.115000",
        "194340.083000",
        "194341.028000",
        "194342.045000",
        "194343.058000",
        "194344.062000",
        "194345.069000",
        "194346.045000",
        "194347.052000",
        "194348.073000",
        "194349.047000",
        "194350.046000",
        "194351.057000",
        "194352.069000",
        "194353.064000",
        "194354.038000",
        "194355.058000",
        "194356.013000",
        "194357.058000",
        "194358.047000",
        "194359.039000",
        "194400.052000",
        "194401.049000",
        "194402.076000",
        "194403.057000",
        "194404.100000",
        "194405.071000",
        "194406.054000",
        "194407.053000",
        "194408.060000",
        "194409.051000",
        "194410.031000",
        "194411.044000",
        "194412.059000",
        "194413.036000",
        "194414.026000",
        "194415.047000",
        "194416.053000",
        "194417.141000",
        "194418.070000",
        "194419.069000",
        "194420.062000",
        "194421.058000",
        "194422.058000",
        "194423.080000",
        "194424.102000",
        "194425.082000",
        "194426.038000",
        "194427.055000",
        "194428.105000",
        "194429.052000",
        "194430.047000",
        "194431.058000",
        "194432.134000",
        "194433.056000",
        "194434.065000",
        "194435.066000",
        "194436.066000",
        "194437.033000",
        "194438.058000",
        "194439.085000",
        "194440.016000",
        "194441.064000",
        "194442.040000",
        "194443.031000",
        "194444.049000",
        "194445.059000",
        "194446.029000",
        "194447.074000",
        "194448.038000",
        "194449.053000",
        "194450.074000",
        "194451.070000",
        "194452.048000",
        "194453.042000",
        "194454.061000",
        "194455.044000",
        "194456.078000",
        "194457.048000",
        "194458.064000",
        "194459.028000",
        "194500.038000",
        "194501.065000",
        "194502.049000",
        "194503.065000",
        "194504.045000",
        "194505.057000",
        "194506.049000",
        "194507.093000",
        "194508.055000",
        "194509.067000",
        "194510.056000",
        "194511.062000",
        "194512.060000",
        "194513.060000",
        "194514.040000",
        "194515.045000",
        "194516.059000",
        "194517.039000",
        "194518.030000",
        "194519.053000",
        "194520.093000",
        "194521.073000",
        "194522.053000",
        "194523.058000",
        "194524.050000",
        "194525.101000",
        "194526.054000",
        "194527.051000",
        "194528.061000",
        "194529.059000",
        "194530.087000",
        "194531.143000",
        "194532.061000",
        "194533.064000",
        "194534.125000",
        "194535.050000",
        "194536.047000",
        "194537.039000",
        "194538.114000",
        "194539.059000",
        "194540.043000",
        "194541.067000",
        "194542.037000",
        "194543.091000",
        "194544.029000",
        "194545.060000",
        "194546.054000",
        "194547.059000",
        "194548.066000",
        "194549.047000",
        "194550.047000",
        "194551.058000",
        "194552.033000",
        "194553.067000",
        "194554.029000",
        "194555.064000",
        "194556.065000",
        "194557.042000",
        "194558.041000",
        "194559.065000",
        "194600.039000",
        "194601.076000",
        "194602.051000",
        "194603.087000",
        "194604.073000",
        "194605.089000",
        "194606.046000",
        "194607.051000",
        "194608.061000",
        "194609.051000",
        "194610.094000",
        "194611.063000",
        "194612.004000",
        "194613.050000",
        "194614.074000",
        "194615.084000",
        "194616.050000",
        "194617.065000",
        "194618.071000",
        "194619.060000",
        "194620.016000",
        "194621.048000",
        "194622.041000",
        "194623.100000",
        "194624.061000",
        "194625.060000",
        "194626.037000",
        "194627.043000",
        "194628.082000",
        "194629.042000",
        "194630.080000",
        "194631.038000",
        "194632.043000",
        "194633.059000",
        "194634.046000",
        "194635.055000",
        "194636.063000",
        "194637.050000",
        "194638.070000",
        "194639.050000",
        "194640.023000",
        "194641.033000",
        "194642.062000",
        "194643.019000",
        "194644.068000",
        "194645.068000",
        "194646.048000",
        "194647.034000",
        "194648.023000",
        "194649.061000",
        "194650.052000",
        "194651.045000",
        "194652.091000",
        "194653.038000",
        "194654.031000",
        "194655.050000",
        "194656.061000",
        "194657.033000",
        "194658.040000",
        "194659.038000",
        "194700.020000",
        "194701.052000",
        "194702.066000",
        "194703.047000",
        "194704.044000",
        "194705.071000",
        "194706.052000",
        "194707.064000",
        "194708.052000",
        "194709.061000",
        "194710.069000",
        "194711.067000",
        "194712.113000",
        "194713.063000",
        "194714.071000",
        "194715.037000",
        "194716.066000",
        "194717.062000",
        "194718.036000",
        "194719.052000",
        "194720.042000",
        "194721.035000",
        "194722.054000",
        "194723.044000",
        "194724.062000",
        "194725.061000",
        "194726.064000",
        "194727.042000",
        "194728.040000",
        "194729.079000"
      ],
      "InstanceNumber": [
        1,
        2,
        3,
        4,
        5,
        6,
        7,
        8,
        9,
        10,
        11,
        12,
        13,
        14,
        15,
        16,
        17,
        18,
        19,
        20,
        21,
        22,
        23,
        24,
        25,
        26,
        27,
        28,
        29,
        30,
        31,
        32,
        33,
        34,
        35,
        36,
        37,
        38,
        39,
        40,
        41,
        42,
        43,
        44,
        45,
        46,
        47,
        48,
        49,
        50,
        51,
        52,
        53,
        54,
        55,
        56,
        57,
        58,
        59,
        60,
        61,
        62,
        63,
        64,
        65,
        66,
        67,
        68,
        69,
        70,
        71,
        72,
        73,
        74,
        75,
        76,
        77,
        78,
        79,
        80,
        81,
        82,
        83,
        84,
        85,
        86,
        87,
        88,
        89,
        90,
        91,
        92,
        93,
        94,
        95,
        96,
        97,
        98,
        99,
        100,
        101,
        102,
        103,
        104,
        105,
        106,
        107,
        108,
        109,
        110,
        111,
        112,
        113,
        114,
        115,
        116,
        117,
        118,
        119,
        120,
        121,
        122,
        123,
        124,
        125,
        126,
        127,
        128,
        129,
        130,
        131,
        132,
        133,
        134,
        135,
        136,
        137,
        138,
        139,
        140,
        141,
        142,
        143,
        144,
        145,
        146,
        147,
        148,
        149,
        150,
        151,
        152,
        153,
        154,
        155,
        156,
        157,
