{
  "AcquisitionMatrixPE": 96,
  "AcquisitionNumber": 1,
  "BandwidthPerPixelPhaseEncode": 18.939,
  "BaseResolution": 96,
  "BodyPartExamined": "BRAIN",
  "ConsistencyInfo": "N4_VE11C_LATEST_20160120",
  "ConversionSoftware": "dcm2niix",
  "ConversionSoftwareVersion": "v1.0.20171215 (OpenJPEG build) GCC6.3.0",
  "DerivedVendorReportedEchoSpacing": 0.000550011,
  "DeviceSerialNumber": "66112",
  "DwellTime": 2.2e-06,
  "EchoTime": 0.033,
  "EchoTrainLength": 96,
  "EffectiveEchoSpacing": 0.000550011,
  "FlipAngle": 59,
  "ImageOrientationPatientDICOM": [
    0.999287,
    0.0340023,
    -0.0164387,
    -0.0359436,
    0.989843,
    -0.137547
  ],
  "ImageType": [
    "ORIGINAL",
    "PRIMARY",
    "FMRI",
    "NONE",
    "ND",
    "NORM",
    "MOSAIC"
  ],
  "InPlanePhaseEncodingDirectionDICOM": "COL",
  "InstitutionAddress": "Maynard_3_Hanover_NH_US_03755",
  "InstitutionName": "Dartmouth_College_-_PBS",
  "InstitutionalDepartmentName": "Department",
  "MRAcquisitionType": "2D",
  "MagneticFieldStrength": 3,
  "Manufacturer": "Siemens",
  "ManufacturersModelName": "Prisma",
  "Modality": "MR",
  "MultibandAccelerationFactor": 4,
  "PatientPosition": "HFS",
  "PercentPhaseFOV": 100,
  "PhaseEncodingDirection": "j-",
  "PhaseEncodingSteps": 96,
  "PhaseResolution": 1,
  "PixelBandwidth": 2365,
  "ProcedureStepDescription": "Gobbini_Matteo_1038_hyperface",
  "ProtocolName": "func_run-04_task-visualmemory",
  "PulseSequenceDetails": "%SiemensSeq%_ep2d_bold",
  "ReceiveCoilActiveElements": "HEA;HEP",
  "ReceiveCoilName": "Head_32",
  "ReconMatrixPE": 96,
  "RepetitionTime": 1,
  "SAR": 0.0518448,
  "ScanOptions": "FS",
  "ScanningSequence": "EP",
  "SequenceName": "_epfid2d1_96",
  "SequenceVariant": "SK",
  "SeriesDescription": "func_run-04_task-visualmemory",
  "SeriesNumber": 29,
  "ShimSetting": [
    4146,
    -7683,
    -7289,
    532,
    -29,
    16,
    66,
    106
  ],
  "SliceThickness": 2.5,
  "SliceTiming": [
    0.7325,
    0,
    0.4875,
    0.08,
    0.57,
    0.1625,
    0.6525,
    0.325,
    0.815,
    0.4075,
    0.8975,
    0.245,
    0.7325,
    0,
    0.4875,
    0.08,
    0.57,
    0.1625,
    0.6525,
    0.325,
    0.815,
    0.4075,
    0.8975,
    0.245,
    0.7325,
    0,
    0.4875,
    0.08,
    0.57,
    0.1625,
    0.6525,
    0.325,
    0.815,
    0.4075,
    0.8975,
    0.245,
    0.7325,
    0,
    0.4875,
    0.08,
    0.57,
    0.1625,
    0.6525,
    0.325,
    0.815,
    0.4075,
    0.8975,
    0.245
  ],
  "SoftwareVersions": "syngo_MR_E11",
  "SpacingBetweenSlices": 2.5,
  "StationName": "AWP66112",
  "TotalReadoutTime": 0.0522511,
  "TxRefAmp": 244.909,
  "time": {
    "samples": {
      "AcquisitionNumber": [
        1,
        2,
        3,
        4,
        5,
        6,
        7,
        8,
        9,
        10,
        11,
        12,
        13,
        14,
        15,
        16,
        17,
        18,
        19,
        20,
        21,
        22,
        23,
        24,
        25,
        26,
        27,
        28,
        29,
        30,
        31,
        32,
        33,
        34,
        35,
        36,
        37,
        38,
        39,
        40,
        41,
        42,
        43,
        44,
        45,
        46,
        47,
        48,
        49,
        50,
        51,
        52,
        53,
        54,
        55,
        56,
        57,
        58,
        59,
        60,
        61,
        62,
        63,
        64,
        65,
        66,
        67,
        68,
        69,
        70,
        71,
        72,
        73,
        74,
        75,
        76,
        77,
        78,
        79,
        80,
        81,
        82,
        83,
        84,
        85,
        86,
        87,
        88,
        89,
        90,
        91,
        92,
        93,
        94,
        95,
        96,
        97,
        98,
        99,
        100,
        101,
        102,
        103,
        104,
        105,
        106,
        107,
        108,
        109,
        110,
        111,
        112,
        113,
        114,
        115,
        116,
        117,
        118,
        119,
        120,
        121,
        122,
        123,
        124,
        125,
        126,
        127,
        128,
        129,
        130,
        131,
        132,
        133,
        134,
        135,
        136,
        137,
        138,
        139,
        140,
        141,
        142,
        143,
        144,
        145,
        146,
        147,
        148,
        149,
        150,
        151,
        152,
        153,
        154,
        155,
        156,
        157,
        158,
        159,
        160,
        161,
        162,
        163,
        164,
        165,
        166,
        167,
        168,
        169,
        170,
        171,
        172,
        173,
        174,
        175,
        176,
        177,
        178,
        179,
        180,
        181,
        182,
        183,
        184,
        185,
        186,
        187,
        188,
        189,
        190,
        191,
        192,
        193,
        194,
        195,
        196,
        197,
        198,
        199,
        200,
        201,
        202,
        203,
        204,
        205,
        206,
        207,
        208,
        209,
        210,
        211,
        212,
        213,
        214,
        215,
        216,
        217,
        218,
        219,
        220,
        221,
        222,
        223,
        224,
        225,
        226,
        227,
        228,
        229,
        230,
        231,
        232,
        233,
        234,
        235,
        236,
        237,
        238,
        239,
        240,
        241,
        242,
        243,
        244,
        245,
        246,
        247,
        248,
        249,
        250,
        251,
        252,
        253,
        254,
        255,
        256,
        257,
        258,
        259,
        260,
        261,
        262,
        263,
        264,
        265,
        266,
        267,
        268,
        269,
        270,
        271,
        272,
        273,
        274,
        275,
        276,
        277,
        278,
        279,
        280,
        281,
        282,
        283,
        284,
        285,
        286,
        287,
        288
      ],
      "AcquisitionTime": [
        "192641.540000",
        "192642.540000",
        "192643.540000",
        "192644.540000",
        "192645.540000",
        "192646.540000",
        "192647.540000",
        "192648.540000",
        "192649.540000",
        "192650.540000",
        "192651.540000",
        "192652.540000",
        "192653.540000",
        "192654.540000",
        "192655.540000",
        "192656.540000",
        "192657.540000",
        "192658.540000",
        "192659.540000",
        "192700.540000",
        "192701.540000",
        "192702.540000",
        "192703.540000",
        "192704.540000",
        "192705.540000",
        "192706.540000",
        "192707.540000",
        "192708.540000",
        "192709.540000",
        "192710.540000",
        "192711.540000",
        "192712.540000",
        "192713.540000",
        "192714.540000",
        "192715.540000",
        "192716.540000",
        "192717.540000",
        "192718.540000",
        "192719.540000",
        "192720.540000",
        "192721.540000",
        "192722.540000",
        "192723.540000",
        "192724.540000",
        "192725.540000",
        "192726.540000",
        "192727.540000",
        "192728.540000",
        "192729.540000",
        "192730.540000",
        "192731.540000",
        "192732.540000",
        "192733.540000",
        "192734.540000",
        "192735.540000",
        "192736.540000",
        "192737.540000",
        "192738.540000",
        "192739.540000",
        "192740.540000",
        "192741.540000",
        "192742.540000",
        "192743.540000",
        "192744.540000",
        "192745.540000",
        "192746.540000",
        "192747.540000",
        "192748.540000",
        "192749.540000",
        "192750.540000",
        "192751.540000",
        "192752.540000",
        "192753.540000",
        "192754.540000",
        "192755.540000",
        "192756.540000",
        "192757.540000",
        "192758.540000",
        "192759.540000",
        "192800.540000",
        "192801.540000",
        "192802.540000",
        "192803.540000",
        "192804.540000",
        "192805.540000",
        "192806.540000",
        "192807.540000",
        "192808.540000",
        "192809.540000",
        "192810.540000",
        "192811.540000",
        "192812.540000",
        "192813.540000",
        "192814.540000",
        "192815.540000",
        "192816.540000",
        "192817.540000",
        "192818.540000",
        "192819.540000",
        "192820.540000",
        "192821.540000",
        "192822.540000",
        "192823.540000",
        "192824.540000",
        "192825.540000",
        "192826.540000",
        "192827.540000",
        "192828.540000",
        "192829.540000",
        "192830.540000",
        "192831.540000",
        "192832.540000",
        "192833.540000",
        "192834.540000",
        "192835.540000",
        "192836.540000",
        "192837.540000",
        "192838.540000",
        "192839.540000",
        "192840.540000",
        "192841.540000",
        "192842.540000",
        "192843.540000",
        "192844.540000",
        "192845.540000",
        "192846.540000",
        "192847.540000",
        "192848.540000",
        "192849.540000",
        "192850.540000",
        "192851.540000",
        "192852.540000",
        "192853.540000",
        "192854.540000",
        "192855.540000",
        "192856.540000",
        "192857.540000",
        "192858.540000",
        "192859.540000",
        "192900.540000",
        "192901.540000",
        "192902.540000",
        "192903.540000",
        "192904.540000",
        "192905.540000",
        "192906.540000",
        "192907.540000",
        "192908.540000",
        "192909.540000",
        "192910.540000",
        "192911.540000",
        "192912.540000",
        "192913.540000",
        "192914.540000",
        "192915.540000",
        "192916.540000",
        "192917.540000",
        "192918.540000",
        "192919.540000",
        "192920.540000",
        "192921.540000",
        "192922.540000",
        "192923.540000",
        "192924.540000",
        "192925.540000",
        "192926.540000",
        "192927.540000",
        "192928.540000",
        "192929.540000",
        "192930.540000",
        "192931.540000",
        "192932.540000",
        "192933.540000",
        "192934.540000",
        "192935.540000",
        "192936.540000",
        "192937.540000",
        "192938.540000",
        "192939.540000",
        "192940.540000",
        "192941.540000",
        "192942.540000",
        "192943.540000",
        "192944.540000",
        "192945.540000",
        "192946.540000",
        "192947.540000",
        "192948.540000",
        "192949.540000",
        "192950.540000",
        "192951.540000",
        "192952.540000",
        "192953.540000",
        "192954.540000",
        "192955.540000",
        "192956.540000",
        "192957.540000",
        "192958.540000",
        "192959.540000",
        "193000.540000",
        "193001.540000",
        "193002.540000",
        "193003.540000",
        "193004.540000",
        "193005.540000",
        "193006.540000",
        "193007.540000",
        "193008.540000",
        "193009.540000",
        "193010.540000",
        "193011.540000",
        "193012.540000",
        "193013.540000",
        "193014.540000",
        "193015.540000",
        "193016.540000",
        "193017.540000",
        "193018.540000",
        "193019.540000",
        "193020.540000",
        "193021.540000",
        "193022.540000",
        "193023.540000",
        "193024.540000",
        "193025.540000",
        "193026.540000",
        "193027.540000",
        "193028.540000",
        "193029.540000",
        "193030.540000",
        "193031.540000",
        "193032.540000",
        "193033.540000",
        "193034.540000",
        "193035.540000",
        "193036.540000",
        "193037.540000",
        "193038.540000",
        "193039.540000",
        "193040.540000",
        "193041.540000",
        "193042.540000",
        "193043.540000",
        "193044.540000",
        "193045.540000",
        "193046.540000",
        "193047.540000",
        "193048.540000",
        "193049.540000",
        "193050.540000",
        "193051.540000",
        "193052.540000",
        "193053.540000",
        "193054.540000",
        "193055.540000",
        "193056.540000",
        "193057.540000",
        "193058.540000",
        "193059.540000",
        "193100.540000",
        "193101.540000",
        "193102.540000",
        "193103.540000",
        "193104.540000",
        "193105.540000",
        "193106.540000",
        "193107.540000",
        "193108.540000",
        "193109.540000",
        "193110.540000",
        "193111.540000",
        "193112.540000",
        "193113.540000",
        "193114.540000",
        "193115.540000",
        "193116.540000",
        "193117.540000",
        "193118.540000",
        "193119.540000",
        "193120.540000",
        "193121.540000",
        "193122.540000",
        "193123.540000",
        "193124.540000",
        "193125.540000",
        "193126.540000",
        "193127.540000",
        "193128.540000"
      ],
      "ContentTime": [
        "192643.109000",
        "192643.879000",
        "192644.874000",
        "192645.797000",
        "192646.834000",
        "192647.819000",
        "192648.822000",
        "192649.892000",
        "192650.823000",
        "192651.820000",
        "192652.817000",
        "192653.869000",
        "192654.839000",
        "192655.833000",
        "192656.828000",
        "192657.798000",
        "192658.803000",
        "192659.811000",
        "192700.816000",
        "192701.814000",
        "192702.819000",
        "192703.826000",
        "192704.807000",
        "192705.850000",
        "192706.828000",
        "192707.806000",
        "192708.933000",
        "192709.829000",
        "192710.885000",
        "192711.815000",
        "192712.823000",
        "192713.795000",
        "192714.804000",
        "192715.823000",
        "192716.807000",
        "192717.845000",
        "192718.835000",
        "192719.812000",
        "192720.874000",
        "192721.794000",
        "192722.855000",
        "192723.820000",
        "192724.846000",
        "192725.905000",
        "192726.809000",
        "192727.822000",
        "192728.797000",
        "192729.821000",
        "192730.786000",
        "192731.804000",
        "192732.801000",
        "192733.839000",
        "192734.827000",
        "192735.824000",
        "192736.780000",
        "192737.813000",
        "192738.790000",
        "192739.825000",
        "192740.784000",
        "192741.848000",
        "192742.833000",
        "192743.822000",
        "192744.845000",
        "192745.812000",
        "192746.817000",
        "192747.834000",
        "192748.819000",
        "192749.788000",
        "192750.815000",
        "192751.802000",
        "192752.811000",
        "192753.865000",
        "192754.804000",
        "192755.840000",
        "192756.818000",
        "192757.816000",
        "192758.828000",
        "192759.872000",
        "192800.818000",
        "192801.799000",
        "192802.824000",
        "192803.801000",
        "192804.868000",
        "192805.818000",
        "192806.811000",
        "192807.839000",
        "192808.848000",
        "192809.834000",
        "192810.827000",
        "192811.836000",
        "192812.786000",
        "192813.825000",
        "192814.823000",
        "192815.809000",
        "192816.829000",
        "192817.828000",
        "192818.788000",
        "192819.867000",
        "192820.805000",
        "192821.828000",
        "192822.856000",
        "192823.840000",
        "192824.834000",
        "192825.850000",
        "192826.847000",
        "192827.810000",
        "192828.844000",
        "192829.881000",
        "192830.803000",
        "192831.857000",
        "192832.822000",
        "192833.858000",
        "192834.852000",
        "192835.820000",
        "192836.838000",
        "192837.802000",
        "192838.846000",
        "192839.845000",
        "192840.865000",
        "192841.832000",
        "192842.818000",
        "192843.820000",
        "192844.811000",
        "192845.867000",
        "192846.879000",
        "192847.834000",
        "192848.855000",
        "192849.818000",
        "192850.831000",
        "192851.818000",
        "192852.825000",
        "192853.799000",
        "192854.876000",
        "192855.822000",
        "192856.827000",
        "192857.860000",
        "192858.830000",
        "192859.820000",
        "192900.876000",
        "192901.821000",
        "192902.833000",
        "192903.886000",
        "192904.837000",
        "192905.851000",
        "192906.862000",
        "192907.831000",
        "192908.804000",
        "192909.831000",
        "192910.860000",
        "192911.854000",
        "192912.845000",
        "192913.853000",
        "192914.806000",
        "192915.838000",
        "192916.818000",
        "192917.806000",
        "192918.836000",
        "192919.839000",
        "192920.866000",
        "192921.810000",
        "192922.863000",
        "192923.839000",
        "192924.856000",
        "192925.861000",
        "192926.855000",
        "192927.859000",
        "192928.865000",
        "192929.821000",
        "192930.815000",
        "192931.809000",
        "192932.782000",
        "192933.825000",
        "192934.783000",
        "192935.821000",
        "192936.825000",
        "192937.824000",
        "192938.872000",
        "192939.857000",
        "192940.846000",
        "192941.815000",
        "192942.856000",
        "192943.857000",
        "192944.831000",
        "192945.882000",
        "192946.833000",
        "192947.815000",
        "192948.825000",
        "192949.843000",
        "192950.792000",
        "192951.867000",
        "192952.864000",
        "192953.861000",
        "192954.806000",
        "192955.810000",
        "192956.840000",
        "192957.801000",
        "192958.811000",
        "192959.819000",
        "193000.826000",
        "193001.813000",
        "193002.852000",
        "193003.879000",
        "193004.825000",
        "193005.822000",
        "193006.846000",
        "193007.834000",
        "193008.820000",
        "193009.813000",
        "193010.842000",
        "193011.824000",
        "193012.818000",
        "193013.820000",
        "193014.861000",
        "193015.821000",
        "193016.793000",
        "193017.820000",
        "193018.775000",
        "193019.803000",
        "193020.832000",
        "193021.808000",
        "193022.870000",
        "193023.863000",
        "193024.815000",
        "193025.827000",
        "193026.815000",
        "193027.817000",
        "193028.847000",
        "193029.817000",
        "193030.797000",
        "193031.790000",
        "193032.817000",
        "193033.828000",
        "193034.832000",
        "193035.868000",
        "193036.845000",
        "193037.863000",
        "193038.824000",
        "193039.821000",
        "193040.838000",
        "193041.859000",
        "193042.830000",
        "193043.817000",
        "193044.785000",
        "193045.842000",
        "193046.823000",
        "193047.814000",
        "193048.857000",
        "193049.840000",
        "193050.831000",
        "193051.812000",
        "193052.860000",
        "193053.830000",
        "193054.892000",
        "193055.820000",
        "193056.809000",
        "193057.802000",
        "193058.844000",
        "193059.827000",
        "193100.811000",
        "193101.816000",
        "193102.837000",
        "193103.816000",
        "193104.816000",
        "193105.815000",
        "193106.835000",
        "193107.825000",
        "193108.859000",
        "193109.807000",
        "193110.838000",
        "193111.829000",
        "193112.854000",
        "193113.815000",
        "193114.837000",
        "193115.792000",
        "193116.794000",
        "193117.794000",
        "193118.818000",
        "193119.822000",
        "193120.824000",
        "193121.775000",
        "193122.831000",
        "193123.826000",
        "193124.814000",
        "193125.811000",
        "193126.933000",
        "193127.817000",
        "193128.840000",
        "193129.870000"
      ],
      "InstanceCreationTime": [
        "192643.109000",
        "192643.879000",
        "192644.874000",
        "192645.797000",
        "192646.834000",
        "192647.819000",
        "192648.822000",
        "192649.892000",
        "192650.823000",
        "192651.820000",
        "192652.817000",
        "192653.869000",
        "192654.839000",
        "192655.833000",
        "192656.828000",
        "192657.798000",
        "192658.803000",
        "192659.811000",
        "192700.816000",
        "192701.814000",
        "192702.819000",
        "192703.826000",
        "192704.807000",
        "192705.850000",
        "192706.828000",
        "192707.806000",
        "192708.933000",
        "192709.829000",
        "192710.885000",
        "192711.815000",
        "192712.823000",
        "192713.795000",
        "192714.804000",
        "192715.823000",
        "192716.807000",
        "192717.845000",
        "192718.835000",
        "192719.812000",
        "192720.874000",
        "192721.794000",
        "192722.855000",
        "192723.820000",
        "192724.846000",
        "192725.905000",
        "192726.809000",
        "192727.822000",
        "192728.797000",
        "192729.821000",
        "192730.786000",
        "192731.804000",
        "192732.801000",
        "192733.839000",
        "192734.827000",
        "192735.824000",
        "192736.780000",
        "192737.813000",
        "192738.790000",
        "192739.825000",
        "192740.784000",
        "192741.848000",
        "192742.833000",
        "192743.822000",
        "192744.845000",
        "192745.812000",
        "192746.817000",
        "192747.834000",
        "192748.819000",
        "192749.788000",
        "192750.815000",
        "192751.802000",
        "192752.811000",
        "192753.865000",
        "192754.804000",
        "192755.840000",
        "192756.818000",
        "192757.816000",
        "192758.828000",
        "192759.872000",
        "192800.818000",
        "192801.799000",
        "192802.824000",
        "192803.801000",
        "192804.868000",
        "192805.818000",
        "192806.811000",
        "192807.839000",
        "192808.848000",
        "192809.834000",
        "192810.827000",
        "192811.836000",
        "192812.786000",
        "192813.825000",
        "192814.823000",
        "192815.809000",
        "192816.829000",
        "192817.828000",
        "192818.788000",
        "192819.867000",
        "192820.805000",
        "192821.828000",
        "192822.856000",
        "192823.840000",
        "192824.834000",
        "192825.850000",
        "192826.847000",
        "192827.810000",
        "192828.844000",
        "192829.881000",
        "192830.803000",
        "192831.857000",
        "192832.822000",
        "192833.858000",
        "192834.852000",
        "192835.820000",
        "192836.838000",
        "192837.802000",
        "192838.846000",
        "192839.845000",
        "192840.865000",
        "192841.832000",
        "192842.818000",
        "192843.820000",
        "192844.811000",
        "192845.867000",
        "192846.879000",
        "192847.834000",
        "192848.855000",
        "192849.818000",
        "192850.831000",
        "192851.818000",
        "192852.825000",
        "192853.799000",
        "192854.876000",
        "192855.822000",
        "192856.827000",
        "192857.860000",
        "192858.830000",
        "192859.820000",
        "192900.876000",
        "192901.821000",
        "192902.833000",
        "192903.886000",
        "192904.837000",
        "192905.851000",
        "192906.862000",
        "192907.831000",
        "192908.804000",
        "192909.831000",
        "192910.860000",
        "192911.854000",
        "192912.845000",
        "192913.853000",
        "192914.806000",
        "192915.838000",
        "192916.818000",
        "192917.806000",
        "192918.836000",
        "192919.839000",
        "192920.866000",
        "192921.810000",
        "192922.863000",
        "192923.839000",
        "192924.856000",
        "192925.861000",
        "192926.855000",
        "192927.859000",
        "192928.865000",
        "192929.821000",
        "192930.815000",
        "192931.809000",
        "192932.782000",
        "192933.825000",
        "192934.783000",
        "192935.821000",
        "192936.825000",
        "192937.824000",
        "192938.872000",
        "192939.857000",
        "192940.846000",
        "192941.815000",
        "192942.856000",
        "192943.857000",
        "192944.831000",
        "192945.882000",
        "192946.833000",
        "192947.815000",
        "192948.825000",
        "192949.843000",
        "192950.792000",
        "192951.867000",
        "192952.864000",
        "192953.861000",
        "192954.806000",
        "192955.810000",
        "192956.840000",
        "192957.801000",
        "192958.811000",
        "192959.819000",
        "193000.826000",
        "193001.813000",
        "193002.852000",
        "193003.879000",
        "193004.825000",
        "193005.822000",
        "193006.846000",
        "193007.834000",
        "193008.820000",
        "193009.813000",
        "193010.842000",
        "193011.824000",
        "193012.818000",
        "193013.820000",
        "193014.861000",
        "193015.821000",
        "193016.793000",
        "193017.820000",
        "193018.775000",
        "193019.803000",
        "193020.832000",
        "193021.808000",
        "193022.870000",
        "193023.863000",
        "193024.815000",
        "193025.827000",
        "193026.815000",
        "193027.817000",
        "193028.847000",
        "193029.817000",
        "193030.797000",
        "193031.790000",
        "193032.817000",
        "193033.828000",
        "193034.832000",
        "193035.868000",
        "193036.845000",
        "193037.863000",
        "193038.824000",
        "193039.821000",
        "193040.838000",
        "193041.859000",
        "193042.830000",
        "193043.817000",
        "193044.785000",
        "193045.842000",
        "193046.823000",
        "193047.814000",
        "193048.857000",
        "193049.840000",
        "193050.831000",
        "193051.812000",
        "193052.860000",
        "193053.830000",
        "193054.892000",
        "193055.820000",
        "193056.809000",
        "193057.802000",
        "193058.844000",
        "193059.827000",
        "193100.811000",
        "193101.816000",
        "193102.837000",
        "193103.816000",
        "193104.816000",
        "193105.815000",
        "193106.835000",
        "193107.825000",
        "193108.859000",
        "193109.807000",
        "193110.838000",
        "193111.829000",
        "193112.854000",
        "193113.815000",
        "193114.837000",
        "193115.792000",
        "193116.794000",
        "193117.794000",
        "193118.818000",
        "193119.822000",
        "193120.824000",
        "193121.775000",
        "193122.831000",
        "193123.826000",
        "193124.814000",
        "193125.811000",
        "193126.933000",
        "193127.817000",
        "193128.840000",
        "193129.870000"
      ],
      "InstanceNumber": [
        1,
        2,
        3,
        4,
        5,
        6,
        7,
        8,
        9,
        10,
        11,
        12,
        13,
        14,
        15,
        16,
        17,
        18,
        19,
        20,
        21,
        22,
        23,
        24,
        25,
        26,
        27,
        28,
        29,
        30,
        31,
        32,
        33,
        34,
        35,
        36,
        37,
        38,
        39,
        40,
        41,
        42,
        43,
        44,
        45,
        46,
        47,
        48,
        49,
        50,
        51,
        52,
        53,
        54,
        55,
        56,
        57,
        58,
        59,
        60,
        61,
        62,
        63,
        64,
        65,
        66,
        67,
        68,
        69,
        70,
        71,
        72,
        73,
        74,
        75,
        76,
        77,
        78,
        79,
        80,
        81,
        82,
        83,
        84,
        85,
        86,
        87,
        88,
        89,
        90,
        91,
        92,
        93,
        94,
        95,
        96,
        97,
        98,
        99,
        100,
        101,
        102,
        103,
        104,
        105,
        106,
        107,
        108,
        109,
        110,
        111,
        112,
        113,
        114,
        115,
        116,
        117,
        118,
        119,
        120,
        121,
        122,
        123,
        124,
        125,
        126,
        127,
        128,
        129,
        130,
        131,
        132,
        133,
        134,
        135,
        136,
        137,
        138,
        139,
        140,
        141,
        142,
        143,
        144,
        145,
        146,
        147,
        148,
        149,
        150,
        151,
        152,
        153,
        154,
        155,
        156,
