{
  "AcquisitionMatrixPE": 120,
  "AcquisitionNumber": 1,
  "BandwidthPerPixelPhaseEncode": 13.889,
  "BaseResolution": 120,
  "BodyPartExamined": "BRAIN",
  "ConsistencyInfo": "N4_VE11C_LATEST_20160120",
  "ConversionSoftware": "dcm2niix",
  "ConversionSoftwareVersion": "v1.0.20170923 (OpenJPEG build) GCC6.3.0",
  "DerivedVendorReportedEchoSpacing": 0.000599995,
  "DeviceSerialNumber": "66112",
  "DwellTime": 2e-06,
  "EchoTime": 0.103,
  "EchoTrainLength": 120,
  "EffectiveEchoSpacing": 0.000599995,
  "FlipAngle": 90,
  "ImageType": [
    "ORIGINAL",
    "PRIMARY",
    "DIFFUSION",
    "NONE",
    "ND",
    "NORM",
    "MOSAIC"
  ],
  "InstitutionAddress": "Maynard_3_Hanover_NH_US_03755",
  "InstitutionName": "Dartmouth_College_-_PBS",
  "MagneticFieldStrength": 3,
  "Manufacturer": "Siemens",
  "ManufacturersModelName": "Prisma",
  "Modality": "MR",
  "MultibandAccelerationFactor": 4,
  "PartialFourier": 1,
  "PercentPhaseFOV": 100,
  "PhaseEncodingDirection": "j-",
  "PhaseEncodingSteps": 120,
  "PhaseResolution": 1,
  "ProcedureStepDescription": "Gobbini_Matteo_1038_hyperface",
  "ProtocolName": "dwi_acq-2.0mmXhardi96Xsms4X11b0",
  "PulseSequenceDetails": "%SiemensSeq%_ep2d_diff",
  "ReceiveCoilActiveElements": "HEA;HEP",
  "ReceiveCoilName": "Head_32",
  "ReconMatrixPE": 120,
  "RepetitionTime": 2.6,
  "ScanOptions": "FS",
  "ScanningSequence": "EP",
  "SequenceName": "_ep_b0",
  "SequenceVariant": "SK_SP",
  "SeriesDescription": "dwi_acq-2.0mmXhardi96Xsms4X11b0",
  "SliceTiming": [
    1.935,
    0,
    1.29,
    0.16,
    1.45,
    0.3225,
    1.6125,
    0.4825,
    1.7725,
    0.805,
    2.095,
    0.9675,
    2.2575,
    1.1275,
    2.4175,
    0.645,
    1.935,
    0,
    1.29,
    0.16,
    1.45,
    0.3225,
    1.6125,
    0.4825,
    1.7725,
    0.805,
    2.095,
    0.9675,
    2.2575,
    1.1275,
    2.4175,
    0.645,
    1.935,
    0,
    1.29,
    0.16,
    1.45,
    0.3225,
    1.6125,
    0.4825,
    1.7725,
    0.805,
    2.095,
    0.9675,
    2.2575,
    1.1275,
    2.4175,
    0.645,
    1.935,
    0,
    1.29,
    0.16,
    1.45,
    0.3225,
    1.6125,
    0.4825,
    1.7725,
    0.805,
    2.095,
    0.9675,
    2.2575,
    1.1275,
    2.4175,
    0.645
  ],
  "SoftwareVersions": "syngo_MR_E11",
  "StationName": "AWP66112",
  "TotalReadoutTime": 0.0713994,
  "time": {
    "samples": {
      "AcquisitionNumber": [
        1,
        2,
        3,
        4,
        5,
        6,
        7,
        8,
        9,
        10,
        11,
        12,
        13,
        14,
        15,
        16,
        17,
        18,
        19,
        20,
        21,
        22,
        23,
        24,
        25,
        26,
        27,
        28,
        29,
        30,
        31,
        32,
        33,
        34,
        35,
        36,
        37,
        38,
        39,
        40,
        41,
        42,
        43,
        44,
        45,
        46,
        47,
        48,
        49,
        50,
        51,
        52,
        53,
        54,
        55,
        56,
        57,
        58,
        59,
        60,
        61,
        62,
        63,
        64,
        65,
        66,
        67,
        68,
        69,
        70,
        71,
        72,
        73,
        74,
        75,
        76,
        77,
        78,
        79,
        80,
        81,
        82,
        83,
        84,
        85,
        86,
        87,
        88,
        89,
        90,
        91,
        92,
        93,
        94,
        95,
        96,
        97,
        98,
        99,
        100,
        101,
        102,
        103,
        104,
        105,
        106,
        107
      ],
      "AcquisitionTime": [
        "095541.500000",
        "095544.100000",
        "095546.700000",
        "095549.300000",
        "095551.900000",
        "095554.500000",
        "095557.100000",
        "095559.700000",
        "095602.300000",
        "095604.900000",
        "095607.500000",
        "095610.100000",
        "095612.700000",
        "095615.300000",
        "095617.900000",
        "095620.500000",
        "095623.100000",
        "095625.700000",
        "095628.300000",
        "095630.900000",
        "095633.500000",
        "095636.100000",
        "095638.700000",
        "095641.300000",
        "095643.900000",
        "095646.500000",
        "095649.100000",
        "095651.700000",
        "095654.300000",
        "095656.900000",
        "095659.500000",
        "095702.100000",
        "095704.700000",
        "095707.300000",
        "095709.900000",
        "095712.500000",
        "095715.100000",
        "095717.700000",
        "095720.300000",
        "095722.900000",
        "095725.500000",
        "095728.100000",
        "095730.700000",
        "095733.300000",
        "095735.900000",
        "095738.500000",
        "095741.100000",
        "095743.700000",
        "095746.300000",
        "095748.900000",
        "095751.500000",
        "095754.100000",
        "095756.700000",
        "095759.300000",
        "095801.900000",
        "095804.500000",
        "095807.100000",
        "095809.700000",
        "095812.300000",
        "095814.900000",
        "095817.500000",
        "095820.100000",
        "095822.700000",
        "095825.300000",
        "095827.900000",
        "095830.500000",
        "095833.100000",
        "095835.700000",
        "095838.300000",
        "095840.900000",
        "095843.500000",
        "095846.100000",
        "095848.700000",
        "095851.300000",
        "095853.900000",
        "095856.500000",
        "095859.100000",
        "095901.700000",
        "095904.300000",
        "095906.900000",
        "095909.500000",
        "095912.100000",
        "095914.700000",
        "095917.300000",
        "095919.900000",
        "095922.500000",
        "095925.100000",
        "095927.700000",
        "095930.300000",
        "095932.900000",
        "095935.500000",
        "095938.100000",
        "095940.700000",
        "095943.300000",
        "095945.900000",
        "095948.500000",
        "095951.100000",
        "095953.700000",
        "095956.300000",
        "095958.900000",
        "100001.500000",
        "100004.100000",
        "100006.700000",
        "100009.300000",
        "100011.900000",
        "100014.500000",
        "100017.100000"
      ],
      "ContentTime": [
        "095642.904000",
        "095642.907000",
        "095642.910000",
        "095642.922000",
        "095642.925000",
        "095642.929000",
        "095642.932000",
        "095642.935000",
        "095642.938000",
        "095642.941000",
        "095642.944000",
        "095642.947000",
        "095642.951000",
        "095642.954000",
        "095642.957000",
        "095642.960000",
        "095642.969000",
        "095642.972000",
        "095642.975000",
        "095642.978000",
        "095642.982000",
        "095642.985000",
        "095642.988000",
        "095742.900000",
        "095742.903000",
        "095742.907000",
        "095742.916000",
        "095742.920000",
        "095742.923000",
        "095742.926000",
        "095742.929000",
        "095742.932000",
        "095742.935000",
        "095742.938000",
        "095742.941000",
        "095742.945000",
        "095742.948000",
        "095742.951000",
        "095742.957000",
        "095742.963000",
        "095742.968000",
        "095742.971000",
        "095742.974000",
        "095742.977000",
        "095742.980000",
        "095742.983000",
        "095842.899000",
        "095842.902000",
        "095842.905000",
        "095842.909000",
        "095842.912000",
        "095842.915000",
        "095842.918000",
        "095842.921000",
        "095842.924000",
        "095842.927000",
        "095842.930000",
        "095842.934000",
        "095842.937000",
        "095842.940000",
        "095842.943000",
        "095842.946000",
        "095842.949000",
        "095842.953000",
        "095842.963000",
        "095842.966000",
        "095842.969000",
        "095842.972000",
        "095842.975000",
        "095842.979000",
        "095942.900000",
        "095942.903000",
        "095942.907000",
        "095942.910000",
        "095942.913000",
        "095942.916000",
        "095942.919000",
        "095942.922000",
        "095942.925000",
        "095942.929000",
        "095942.932000",
        "095942.935000",
        "095942.938000",
        "095942.941000",
        "095942.944000",
        "095942.947000",
        "095942.951000",
        "095942.954000",
        "095942.957000",
        "095942.960000",
        "095942.963000",
        "095942.966000",
        "095942.969000",
        "100021.477000",
        "100021.480000",
        "100021.483000",
        "100021.486000",
        "100021.489000",
        "100021.493000",
        "100021.496000",
        "100021.499000",
        "100021.502000",
        "100021.505000",
        "100021.508000",
        "100021.511000",
        "100021.515000",
        "100021.518000"
      ],
      "InstanceCreationTime": [
        "095642.904000",
        "095642.907000",
        "095642.910000",
        "095642.922000",
        "095642.925000",
        "095642.929000",
        "095642.932000",
        "095642.935000",
        "095642.938000",
        "095642.941000",
        "095642.944000",
        "095642.947000",
        "095642.951000",
        "095642.954000",
        "095642.957000",
        "095642.960000",
        "095642.969000",
        "095642.972000",
        "095642.975000",
        "095642.978000",
        "095642.982000",
        "095642.985000",
        "095642.988000",
        "095742.900000",
        "095742.903000",
        "095742.907000",
        "095742.916000",
        "095742.920000",
        "095742.923000",
        "095742.926000",
        "095742.929000",
        "095742.932000",
        "095742.935000",
        "095742.938000",
        "095742.941000",
        "095742.945000",
        "095742.948000",
        "095742.951000",
        "095742.957000",
        "095742.963000",
        "095742.968000",
        "095742.971000",
        "095742.974000",
        "095742.977000",
        "095742.980000",
        "095742.983000",
        "095842.899000",
        "095842.902000",
        "095842.905000",
        "095842.909000",
        "095842.912000",
        "095842.915000",
        "095842.918000",
        "095842.921000",
        "095842.924000",
        "095842.927000",
        "095842.930000",
        "095842.934000",
        "095842.937000",
        "095842.940000",
        "095842.943000",
        "095842.946000",
        "095842.949000",
        "095842.953000",
        "095842.963000",
        "095842.966000",
        "095842.969000",
        "095842.972000",
        "095842.975000",
        "095842.979000",
        "095942.900000",
        "095942.903000",
        "095942.907000",
        "095942.910000",
        "095942.913000",
        "095942.916000",
        "095942.919000",
        "095942.922000",
        "095942.925000",
        "095942.929000",
        "095942.932000",
        "095942.935000",
        "095942.938000",
        "095942.941000",
        "095942.944000",
        "095942.947000",
        "095942.951000",
        "095942.954000",
        "095942.957000",
        "095942.960000",
        "095942.963000",
        "095942.966000",
        "095942.969000",
        "100021.477000",
        "100021.480000",
        "100021.483000",
        "100021.486000",
        "100021.489000",
        "100021.493000",
        "100021.496000",
        "100021.499000",
        "100021.502000",
        "100021.505000",
        "100021.508000",
        "100021.511000",
        "100021.515000",
        "100021.518000"
      ],
      "InstanceNumber": [
        1,
        2,
        3,
        4,
        5,
        6,
        7,
        8,
        9,
        10,
        11,
        12,
        13,
        14,
        15,
        16,
        17,
        18,
        19,
        20,
        21,
        22,
        23,
        24,
        25,
        26,
        27,
        28,
        29,
        30,
        31,
        32,
        33,
        34,
        35,
        36,
        37,
        38,
        39,
        40,
        41,
        42,
        43,
        44,
        45,
        46,
        47,
        48,
        49,
        50,
        51,
        52,
        53,
        54,
        55,
        56,
        57,
        58,
        59,
        60,
        61,
        62,
        63,
        64,
        65,
        66,
        67,
        68,
        69,
        70,
        71,
        72,
        73,
        74,
        75,
        76,
        77,
        78,
        79,
        80,
        81,
        82,
        83,
        84,
        85,
        86,
        87,
        88,
        89,
        90,
        91,
        92,
        93,
        94,
        95,
        96,
        97,
        98,
        99,
        100,
        101,
        102,
        103,
        104,
        105,
        106,
        107
      ],
      "LargestImagePixelValue": [
        2162,
        2104,
        487,
        582,
        557,
        536,
        580,
        488,
        450,
        501,
        580,
        2077,
        584,
        493,
        572,
        489,
        561,
        583,
        519,
        491,
        609,
        714,
        2084,
        477,
        647,
        508,
        463,
        516,
        539,
        579,
        513,
        532,
        482,
        2092,
        485,
        529,
        536,
        557,
        576,
        535,
        601,
        550,
        533,
        579,
        2187,
        504,
        616,
        610,
        580,
        466,
        630,
        626,
        642,
        556,
        502,
        2204,
        516,
        483,
        517,
        487,
        600,
        660,
        593,
        587,
        643,
        535,
        1902,
        488,
        657,
        604,
        568,
        549,
        632,
        551,
        552,
        504,
        638,
        2162,
        476,
        502,
        577,
        567,
        601,
        570,
        606,
        556,
        579,
        2047,
        574,
        565,
        632,
        468,
        563,
        466,
        716,
        546,
        539,
        2594,
        556,
        507,
        591,
        441,
        560,
        478,
        684,
        612,
        621
      ],
      "SequenceName": [
        "*ep_b0",
        "*ep_b0",
        "*ep_b1000#2",
        "*ep_b1000#3",
        "*ep_b1000#4",
        "*ep_b1000#5",
        "*ep_b1000#6",
        "*ep_b1000#7",
        "*ep_b1000#8",
        "*ep_b1000#9",
        "*ep_b1000#10",
        "*ep_b0",
        "*ep_b1000#12",
        "*ep_b1000#13",
        "*ep_b1000#14",
        "*ep_b1000#15",
        "*ep_b1000#16",
        "*ep_b1000#17",
        "*ep_b1000#18",
        "*ep_b1000#19",
        "*ep_b1000#20",
        "*ep_b1000#21",
        "*ep_b0",
        "*ep_b1000#23",
        "*ep_b1000#24",
        "*ep_b1000#25",
        "*ep_b1000#26",
        "*ep_b1000#27",
        "*ep_b1000#28",
        "*ep_b1000#29",
        "*ep_b1000#30",
        "*ep_b1000#31",
        "*ep_b1000#32",
        "*ep_b0",
        "*ep_b1000#34",
        "*ep_b1000#35",
        "*ep_b1000#36",
        "*ep_b1000#37",
        "*ep_b1000#38",
        "*ep_b1000#39",
        "*ep_b1000#40",
        "*ep_b1000#41",
        "*ep_b1000#42",
        "*ep_b1000#43",
        "*ep_b0",
        "*ep_b1000#45",
        "*ep_b1000#46",
        "*ep_b1000#47",
        "*ep_b1000#48",
        "*ep_b1000#49",
        "*ep_b1000#50",
        "*ep_b1000#51",
        "*ep_b1000#52",
        "*ep_b1000#53",
        "*ep_b1000#54",
        "*ep_b0",
        "*ep_b1000#56",
        "*ep_b1000#57",
        "*ep_b1000#58",
        "*ep_b1000#59",
        "*ep_b1000#60",
        "*ep_b1000#61",
        "*ep_b1000#62",
        "*ep_b1000#63",
        "*ep_b1000#64",
        "*ep_b1000#65",
        "*ep_b0",
        "*ep_b1000#67",
        "*ep_b1000#68",
        "*ep_b1000#69",
        "*ep_b1000#70",
        "*ep_b1000#71",
        "*ep_b1000#72",
        "*ep_b1000#73",
        "*ep_b1000#74",
        "*ep_b1000#75",
        "*ep_b1000#76",
        "*ep_b0",
        "*ep_b1000#78",
        "*ep_b1000#79",
        "*ep_b1000#80",
        "*ep_b1000#81",
        "*ep_b1000#82",
        "*ep_b1000#83",
        "*ep_b1000#84",
        "*ep_b1000#85",
        "*ep_b1000#86",
        "*ep_b0",
        "*ep_b1000#88",
        "*ep_b1000#89",
        "*ep_b1000#90",
        "*ep_b1000#91",
        "*ep_b1000#92",
        "*ep_b1000#93",
        "*ep_b1000#94",
        "*ep_b1000#95",
        "*ep_b1000#96",
        "*ep_b0",
        "*ep_b1000#98",
        "*ep_b1000#99",
        "*ep_b1000#100",
        "*ep_b1000#101",
        "*ep_b1000#102",
        "*ep_b1000#103",
        "*ep_b1000#104",
        "*ep_b1000#105",
        "*ep_b1000#106"
      ],
      "WindowCenter": [
        226,
        225,
        103,
        109,
        106,
        107,
        105,
        105,
        107,
        103,
        107,
        223,
        107,
        105,
        104,
        107,
        107,
        103,
        107,
        107,
        105,
        107,
        222,
        106,
        108,
        105,
        105,
        107,
        105,
        107,
        103,
        105,
        108,
        221,
        106,
        107,
        103,
        108,
        104,
        107,
        107,
        107,
        105,
        108,
        222,
        105,
        104,
        109,
        105,
        106,
        106,
        106,
        105,
        107,
        106,
        226,
        106,
        104,
        107,
        103,
        108,
        107,
        106,
        104,
        105,
        105,
        222,
        105,
        108,
        106,
        106,
        106,
        104,
        107,
        104,
        106,
        105,
        224,
        107,
        106,
        106,
        106,
        106,
        106,
        107,
        105,
        105,
        222,
        107,
        107,
        108,
        106,
        105,
        104,
        108,
        106,
        105,
        233,
        106,
        106,
        105,
        105,
        106,
        106,
        104,
        107,
        104
      ],
      "WindowWidth": [
        540,
        538,
        261,
        274,
        267,
        271,
        267,
        266,
        269,
        260,
        271,
        532,
        270,
        265,
        264,
        269,
        271,
        262,
        269,
        271,
        264,
        270,
        529,
        267,
        272,
        265,
        266,
        270,
        265,
        271,
        262,
        266,
        272,
        527,
        267,
        269,
        260,
        273,
        264,
        269,
        270,
        269,
        265,
        272,
        531,
        265,
        264,
        274,
        267,
        267,
        267,
        267,
        266,
        269,
        268,
        537,
        268,
        263,
        269,
        261,
        273,
        271,
        268,
        264,
        266,
        267,
        530,
        265,
        273,
        268,
        267,
        267,
        264,
        269,
        264,
        269,
        266,
        533,
        269,
        267,
        269,
        267,
        268,
        267,
        270,
        267,
        266,
        529,
        269,
        269,
        272,
        267,
        266,
        263,
        272,
        268,
        266,
        543,
        267,
        267,
        264,
        266,
        268,
        269,
        264,
        270,
        264
      ]
    },
    "slices": {}
  }
}
