{
  "AcquisitionMatrixPE": 96,
  "AcquisitionNumber": 1,
  "AcquisitionTime": "10:38:50.832500",
  "BandwidthPerPixelPhaseEncode": 18.939,
  "BaseResolution": 96,
  "BodyPartExamined": "BRAIN",
  "ConsistencyInfo": "N4_VE11C_LATEST_20160120",
  "ConversionSoftware": "dcm2niix",
  "ConversionSoftwareVersion": "v1.0.20170923 (OpenJPEG build) GCC6.3.0",
  "DerivedVendorReportedEchoSpacing": 0.000550011,
  "DeviceSerialNumber": "66112",
  "DwellTime": 2.2e-06,
  "EchoTime": 0.033,
  "EchoTrainLength": 96,
  "EffectiveEchoSpacing": 0.000550011,
  "FlipAngle": 59,
  "ImageType": [
    "ORIGINAL",
    "PRIMARY",
    "FMRI",
    "NONE",
    "ND",
    "NORM",
    "MOSAIC"
],
  "InstitutionAddress": "Maynard_3_Hanover_NH_US_03755",
  "InstitutionName": "Dartmouth_College_-_PBS",
  "MagneticFieldStrength": 3,
  "Manufacturer": "Siemens",
  "ManufacturersModelName": "Prisma",
  "Modality": "MR",
  "MultibandAccelerationFactor": 4,
  "PartialFourier": 1,
  "PercentPhaseFOV": 100,
  "PhaseEncodingDirection": "j-",
  "PhaseEncodingSteps": 96,
  "PhaseResolution": 1,
  "ProcedureStepDescription": "Gobbini_Matteo_1038_hyperface",
  "ProtocolName": "func_run-04_task-visualmemory",
  "PulseSequenceDetails": "%SiemensSeq%_ep2d_bold",
  "ReceiveCoilActiveElements": "HEA;HEP",
  "ReceiveCoilName": "Head_32",
  "ReconMatrixPE": 96,
  "RepetitionTime": 1,
  "ScanOptions": "FS",
  "ScanningSequence": "EP",
  "SequenceName": "_epfid2d1_96",
  "SequenceVariant": "SK",
  "SeriesDescription": "func_run-04_task-visualmemory",
  "SliceTiming": [0.735, 0, 0.49, 0.0825, 0.5725, 0.165, 0.655, 0.3275, 0.8175, 0.41, 0.9, 0.245, 0.735, 0, 0.49, 0.0825, 0.5725, 0.165, 0.655, 0.3275, 0.8175, 0.41, 0.9, 0.245, 0.735, 0, 0.49, 0.0825, 0.5725, 0.165, 0.655, 0.3275, 0.8175, 0.41, 0.9, 0.245, 0.735, 0, 0.49, 0.0825, 0.5725, 0.165, 0.655, 0.3275, 0.8175, 0.41, 0.9, 0.245],
  "SoftwareVersions": "syngo_MR_E11",
  "StationName": "AWP66112",
  "TotalReadoutTime": 0.0522511,
  "dcmmeta_affine": [
    [-2.4992973804473877, 0.006542987190186977, 0.05890312045812607, 121.58489227294922],
    [0.013986007310450077, 2.47965407371521, 0.3179941475391388, -109.63279724121094],
    [0.05759149044752121, -0.31823429465293884, 2.4789936542510986, -67.83405303955078],
    [0.0, 0.0, 0.0, 1.0]
],
  "dcmmeta_reorient_transform": [
    [0.0, -1.0, 0.0, 95.0],
    [1.0, 0.0, 0.0, 0.0],
    [0.0, 0.0, 1.0, 0.0],
    [0.0, 0.0, 0.0, 1.0]
],
  "dcmmeta_shape": [96, 96, 48, 288],
  "dcmmeta_slice_dim": 2,
  "dcmmeta_version": 0.6,
  "global": {
    "const": {
      "AccessionNumber": "A001178",
      "AcquisitionMatrix": [96, 0, 0, 96],
      "AngioFlag": "N",
      "BitsAllocated": 16,
      "BitsStored": 12,
      "BodyPartExamined": "BRAIN",
      "Columns": 672,
      "EchoNumbers": 1,
      "EchoTime": 33.0,
      "EchoTrainLength": 96,
      "FlipAngle": 59.0,
      "HighBit": 11,
      "ImageOrientationPatient": [0.99971896945541, -0.0055944028935, 0.02303659626074, 0.00261719493057, 0.99186161276698, 0.12729372101552],
      "ImagePositionPatient": [-843.88851720051, -836.04673025383, -206.30413887534],
      "ImageType": [
        "ORIGINAL",
        "PRIMARY",
        "FMRI",
        "NONE",
        "ND",
        "NORM",
        "MOSAIC"
],
      "ImagedNucleus": "1H",
      "ImagingFrequency": 123.252325,
      "InPlanePhaseEncodingDirection": "COL",
      "MRAcquisitionType": "2D",
      "MagneticFieldStrength": 3.0,
      "Manufacturer": "SIEMENS",
      "ManufacturerModelName": "Prisma",
      "Modality": "MR",
      "NumberOfAverages": 1.0,
      "NumberOfPhaseEncodingSteps": 96,
      "PercentPhaseFieldOfView": 100.0,
      "PercentSampling": 100.0,
      "PerformedProcedureStepStartTime": "101828.004000",
      "PhotometricInterpretation": "MONOCHROME2",
      "PixelBandwidth": 2365.0,
      "PixelRepresentation": 0,
      "PixelSpacing": [2.5, 2.5],
      "PositionReferenceIndicator": "",
      "ProtocolName": "func_run-04_task-visualmemory",
      "RepetitionTime": 1000.0,
      "Rows": 672,
      "SAR": 0.04256864287908,
      "SamplesPerPixel": 1,
      "ScanOptions": "FS",
      "ScanningSequence": "EP",
      "SequenceName": "*epfid2d1_96",
      "SequenceVariant": "SK",
      "SeriesDescription": "func_run-04_task-visualmemory",
      "SeriesNumber": 28,
      "SeriesTime": "103852.155000",
      "SliceLocation": -78.344419410555,
      "SliceThickness": 2.5,
      "SmallestImagePixelValue": 0,
      "SoftwareVersions": "syngo MR E11",
      "SpacingBetweenSlices": 2.4999999820395,
      "SpecificCharacterSet": "ISO_IR 100",
      "StudyID": "2",
      "StudyTime": "101827.965000",
      "TransmitCoilName": "Body",
      "VariableFlipAngleFlag": "N",
      "WindowCenterWidthExplanation": "Algo1",
      "dBdt": 0.0},
    "slices": {}
  },
  "time": {
    "samples": {
      "AcquisitionNumber": [1, 2, 3, 4, 5, 6, 7, 8, 9, 10, 11, 12, 13, 14, 15, 16, 17, 18, 19, 20, 21, 22, 23, 24, 25, 26, 27, 28, 29, 30, 31, 32, 33, 34, 35, 36, 37, 38, 39, 40, 41, 42, 43, 44, 45, 46, 47, 48, 49, 50, 51, 52, 53, 54, 55, 56, 57, 58, 59, 60, 61, 62, 63, 64, 65, 66, 67, 68, 69, 70, 71, 72, 73, 74, 75, 76, 77, 78, 79, 80, 81, 82, 83, 84, 85, 86, 87, 88, 89, 90, 91, 92, 93, 94, 95, 96, 97, 98, 99, 100, 101, 102, 103, 104, 105, 106, 107, 108, 109, 110, 111, 112, 113, 114, 115, 116, 117, 118, 119, 120, 121, 122, 123, 124, 125, 126, 127, 128, 129, 130, 131, 132, 133, 134, 135, 136, 137, 138, 139, 140, 141, 142, 143, 144, 145, 146, 147, 148, 149, 150, 151, 152, 153, 154, 155, 156, 157, 158, 159, 160, 161, 162, 163, 164, 165, 166, 167, 168, 169, 170, 171, 172, 173, 174, 175, 176, 177, 178, 179, 180, 181, 182, 183, 184, 185, 186, 187, 188, 189, 190, 191, 192, 193, 194, 195, 196, 197, 198, 199, 200, 201, 202, 203, 204, 205, 206, 207, 208, 209, 210, 211, 212, 213, 214, 215, 216, 217, 218, 219, 220, 221, 222, 223, 224, 225, 226, 227, 228, 229, 230, 231, 232, 233, 234, 235, 236, 237, 238, 239, 240, 241, 242, 243, 244, 245, 246, 247, 248, 249, 250, 251, 252, 253, 254, 255, 256, 257, 258, 259, 260, 261, 262, 263, 264, 265, 266, 267, 268, 269, 270, 271, 272, 273, 274, 275, 276, 277, 278, 279, 280, 281, 282, 283, 284, 285, 286, 287, 288],
      "AcquisitionTime": ["103850.832500", "103851.832500", "103852.832500", "103853.832500", "103854.832500", "103855.832500", "103856.832500", "103857.832500", "103858.832500", "103859.832500", "103900.832500", "103901.832500", "103902.832500", "103903.832500", "103904.832500", "103905.832500", "103906.832500", "103907.832500", "103908.832500", "103909.832500", "103910.832500", "103911.832500", "103912.832500", "103913.832500", "103914.832500", "103915.832500", "103916.832500", "103917.832500", "103918.832500", "103919.832500", "103920.832500", "103921.832500", "103922.832500", "103923.832500", "103924.832500", "103925.832500", "103926.832500", "103927.832500", "103928.832500", "103929.832500", "103930.832500", "103931.832500", "103932.832500", "103933.832500", "103934.832500", "103935.832500", "103936.832500", "103937.832500", "103938.832500", "103939.832500", "103940.832500", "103941.832500", "103942.832500", "103943.832500", "103944.832500", "103945.832500", "103946.832500", "103947.832500", "103948.832500", "103949.832500", "103950.832500", "103951.832500", "103952.832500", "103953.832500", "103954.832500", "103955.832500", "103956.832500", "103957.832500", "103958.832500", "103959.832500", "104000.832500", "104001.832500", "104002.832500", "104003.832500", "104004.832500", "104005.832500", "104006.832500", "104007.832500", "104008.832500", "104009.832500", "104010.832500", "104011.832500", "104012.832500", "104013.832500", "104014.832500", "104015.832500", "104016.832500", "104017.832500", "104018.832500", "104019.832500", "104020.832500", "104021.832500", "104022.832500", "104023.832500", "104024.832500", "104025.832500", "104026.832500", "104027.832500", "104028.832500", "104029.832500", "104030.832500", "104031.832500", "104032.832500", "104033.832500", "104034.832500", "104035.832500", "104036.832500", "104037.832500", "104038.832500", "104039.832500", "104040.832500", "104041.832500", "104042.832500", "104043.832500", "104044.832500", "104045.832500", "104046.832500", "104047.832500", "104048.832500", "104049.832500", "104050.832500", "104051.832500", "104052.832500", "104053.832500", "104054.832500", "104055.832500", "104056.832500", "104057.832500", "104058.832500", "104059.832500", "104100.832500", "104101.832500", "104102.832500", "104103.832500", "104104.832500", "104105.832500", "104106.832500", "104107.832500", "104108.832500", "104109.832500", "104110.832500", "104111.832500", "104112.832500", "104113.832500", "104114.832500", "104115.832500", "104116.832500", "104117.832500", "104118.832500", "104119.832500", "104120.832500", "104121.832500", "104122.832500", "104123.832500", "104124.832500", "104125.832500", "104126.832500", "104127.832500", "104128.832500", "104129.832500", "104130.832500", "104131.832500", "104132.832500", "104133.832500", "104134.832500", "104135.832500", "104136.832500", "104137.832500", "104138.832500", "104139.832500", "104140.832500", "104141.832500", "104142.832500", "104143.832500", "104144.832500", "104145.832500", "104146.832500", "104147.832500", "104148.832500", "104149.832500", "104150.832500", "104151.832500", "104152.832500", "104153.832500", "104154.832500", "104155.832500", "104156.832500", "104157.832500", "104158.832500", "104159.832500", "104200.832500", "104201.832500", "104202.832500", "104203.832500", "104204.832500", "104205.832500", "104206.832500", "104207.832500", "104208.832500", "104209.832500", "104210.832500", "104211.832500", "104212.832500", "104213.832500", "104214.832500", "104215.832500", "104216.832500", "104217.832500", "104218.832500", "104219.832500", "104220.832500", "104221.832500", "104222.832500", "104223.832500", "104224.832500", "104225.832500", "104226.832500", "104227.832500", "104228.832500", "104229.832500", "104230.832500", "104231.832500", "104232.832500", "104233.832500", "104234.832500", "104235.832500", "104236.832500", "104237.832500", "104238.832500", "104239.832500", "104240.832500", "104241.832500", "104242.832500", "104243.832500", "104244.832500", "104245.832500", "104246.832500", "104247.832500", "104248.832500", "104249.832500", "104250.832500", "104251.832500", "104252.832500", "104253.832500", "104254.832500", "104255.832500", "104256.832500", "104257.832500", "104258.832500", "104259.832500", "104300.832500", "104301.832500", "104302.832500", "104303.832500", "104304.832500", "104305.832500", "104306.832500", "104307.832500", "104308.832500", "104309.832500", "104310.832500", "104311.832500", "104312.832500", "104313.832500", "104314.832500", "104315.832500", "104316.832500", "104317.832500", "104318.832500", "104319.832500", "104320.832500", "104321.832500", "104322.832500", "104323.832500", "104324.832500", "104325.832500", "104326.832500", "104327.832500", "104328.832500", "104329.832500", "104330.832500", "104331.832500", "104332.832500", "104333.832500", "104334.832500", "104335.832500", "104336.832500", "104337.832500"],
      "ContentTime": ["103852.159000", "103852.987000", "103853.971000", "103854.981000", "103855.981000", "103856.995000", "103858.055000", "103859.008000", "103900.001000", "103901.015000", "103901.995000", "103902.963000", "103903.976000", "103904.994000", "103905.985000", "103906.970000", "103907.952000", "103908.985000", "103909.993000", "103910.973000", "103911.989000", "103912.989000", "103914.005000", "103915.004000", "103916.007000", "103916.993000", "103918.003000", "103919.018000", "103919.995000", "103920.985000", "103921.987000", "103923.003000", "103924.009000", "103925.004000", "103925.994000", "103926.975000", "103928.025000", "103929.001000", "103929.977000", "103930.979000", "103932.013000", "103932.960000", "103934.011000", "103934.993000", "103935.990000", "103936.990000", "103937.986000", "103939.004000", "103939.977000", "103941.002000", "103941.961000", "103942.999000", "103943.993000", "103945.022000", "103946.029000", "103947.002000", "103947.984000", "103948.992000", "103950.000000", "103951.011000", "103951.965000", "103952.997000", "103953.973000", "103955.000000", "103955.950000", "103956.952000", "103957.957000", "103958.991000", "104000.001000", "104001.025000", "104002.003000", "104002.989000", "104004.015000", "104005.002000", "104005.962000", "104006.985000", "104008.000000", "104008.954000", "104009.986000", "104010.997000", "104011.975000", "104013.008000", "104014.008000", "104014.985000", "104015.984000", "104016.987000", "104017.987000", "104019.016000", "104019.987000", "104020.983000", "104021.976000", "104022.986000", "104023.970000", "104024.986000", "104026.029000", "104026.980000", "104027.976000", "104028.961000", "104029.978000", "104030.976000", "104032.020000", "104033.000000", "104034.030000", "104034.989000", "104035.990000", "104036.998000", "104038.003000", "104039.016000", "104039.973000", "104040.967000", "104041.978000", "104042.997000", "104043.987000", "104045.018000", "104046.013000", "104047.004000", "104047.966000", "104048.982000", "104049.977000", "104050.994000", "104051.988000", "104053.013000", "104054.013000", "104055.016000", "104055.978000", "104056.961000", "104057.993000", "104059.037000", "104100.003000", "104100.995000", "104102.006000", "104102.968000", "104103.991000", "104104.974000", "104105.991000", "104106.986000", "104108.003000", "104108.995000", "104110.012000", "104110.992000", "104112.000000", "104113.032000", "104114.000000", "104115.009000", "104116.008000", "104116.990000", "104117.986000", "104118.990000", "104120.008000", "104120.984000", "104121.985000", "104122.983000", "104124.001000", "104124.982000", "104126.021000", "104127.002000", "104127.977000", "104128.997000", "104130.004000", "104131.024000", "104132.010000", "104132.979000", "104133.978000", "104134.988000", "104136.007000", "104136.998000", "104138.000000", "104138.983000", "104140.006000", "104140.979000", "104141.986000", "104143.015000", "104144.000000", "104145.003000", "104146.062000", "104146.981000", "104148.004000", "104148.989000", "104149.968000", "104150.969000", "104151.995000", "104152.979000", "104153.986000", "104155.014000", "104155.991000", "104156.978000", "104157.995000", "104159.024000", "104200.019000", "104200.956000", "104201.998000", "104202.976000", "104203.961000", "104204.995000", "104206.002000", "104206.973000", "104208.001000", "104208.966000", "104209.980000", "104210.979000", "104211.987000", "104212.992000", "104213.986000", "104214.985000", "104215.990000", "104216.976000", "104218.000000", "104218.969000", "104219.994000", "104220.983000", "104222.036000", "104222.981000", "104223.996000", "104224.997000", "104225.976000", "104226.991000", "104227.996000", "104228.977000", "104229.990000", "104231.012000", "104231.986000", "104233.053000", "104233.991000", "104234.992000", "104235.977000", "104236.998000", "104238.013000", "104238.997000", "104239.990000", "104241.035000", "104241.986000", "104242.968000", "104243.976000", "104244.991000", "104246.008000", "104247.012000", "104247.992000", "104249.000000", "104249.983000", "104250.986000", "104251.991000", "104252.993000", "104253.965000", "104255.017000", "104255.997000", "104257.014000", "104257.987000", "104258.963000", "104300.007000", "104301.004000", "104301.996000", "104303.038000", "104304.018000", "104305.016000", "104305.987000", "104306.984000", "104308.020000", "104309.004000", "104309.981000", "104310.982000", "104311.992000", "104312.987000", "104314.011000", "104314.977000", "104315.992000", "104316.963000", "104317.943000", "104318.983000", "104319.996000", "104320.984000", "104322.000000", "104322.985000", "104323.977000", "104324.966000", "104326.009000", "104326.983000", "104327.998000", "104329.003000", "104329.979000", "104330.995000", "104332.012000", "104332.985000", "104333.966000", "104334.932000", "104335.987000", "104336.996000", "104338.012000", "104339.005000"],
      "InstanceCreationTime": ["103852.159000", "103852.987000", "103853.971000", "103854.981000", "103855.981000", "103856.995000", "103858.055000", "103859.008000", "103900.001000", "103901.015000", "103901.995000", "103902.963000", "103903.976000", "103904.994000", "103905.985000", "103906.970000", "103907.952000", "103908.985000", "103909.993000", "103910.973000", "103911.989000", "103912.989000", "103914.005000", "103915.004000", "103916.007000", "103916.993000", "103918.003000", "103919.018000", "103919.995000", "103920.985000", "103921.987000", "103923.003000", "103924.009000", "103925.004000", "103925.994000", "103926.975000", "103928.025000", "103929.001000", "103929.977000", "103930.979000", "103932.013000", "103932.960000", "103934.011000", "103934.993000", "103935.990000", "103936.990000", "103937.986000", "103939.004000", "103939.977000", "103941.002000", "103941.961000", "103942.999000", "103943.993000", "103945.022000", "103946.029000", "103947.002000", "103947.984000", "103948.992000", "103950.000000", "103951.011000", "103951.965000", "103952.997000", "103953.973000", "103955.000000", "103955.950000", "103956.952000", "103957.957000", "103958.991000", "104000.001000", "104001.025000", "104002.003000", "104002.989000", "104004.015000", "104005.002000", "104005.962000", "104006.985000", "104008.000000", "104008.954000", "104009.986000", "104010.997000", "104011.975000", "104013.008000", "104014.008000", "104014.985000", "104015.984000", "104016.987000", "104017.987000", "104019.016000", "104019.987000", "104020.983000", "104021.976000", "104022.986000", "104023.970000", "104024.986000", "104026.029000", "104026.980000", "104027.976000", "104028.961000", "104029.978000", "104030.976000", "104032.020000", "104033.000000", "104034.030000", "104034.989000", "104035.990000", "104036.998000", "104038.003000", "104039.016000", "104039.973000", "104040.967000", "104041.978000", "104042.997000", "104043.987000", "104045.018000", "104046.013000", "104047.004000", "104047.966000", "104048.982000", "104049.977000", "104050.994000", "104051.988000", "104053.013000", "104054.013000", "104055.016000", "104055.978000", "104056.961000", "104057.993000", "104059.037000", "104100.003000", "104100.995000", "104102.006000", "104102.968000", "104103.991000", "104104.974000", "104105.991000", "104106.986000", "104108.003000", "104108.995000", "104110.012000", "104110.992000", "104112.000000", "104113.032000", "104114.000000", "104115.009000", "104116.008000", "104116.990000", "104117.986000", "104118.990000", "104120.008000", "104120.984000", "104121.985000", "104122.983000", "104124.001000", "104124.982000", "104126.021000", "104127.002000", "104127.977000", "104128.997000", "104130.004000", "104131.024000", "104132.010000", "104132.979000", "104133.978000", "104134.988000", "104136.007000", "104136.998000", "104138.000000", "104138.983000", "104140.006000", "104140.979000", "104141.986000", "104143.015000", "104144.000000", "104145.003000", "104146.062000", "104146.981000", "104148.004000", "104148.989000", "104149.968000", "104150.969000", "104151.995000", "104152.979000", "104153.986000", "104155.014000", "104155.991000", "104156.978000", "104157.995000", "104159.024000", "104200.019000", "104200.956000", "104201.998000", "104202.976000", "104203.961000", "104204.995000", "104206.002000", "104206.973000", "104208.001000", "104208.966000", "104209.980000", "104210.979000", "104211.987000", "104212.992000", "104213.986000", "104214.985000", "104215.990000", "104216.976000", "104218.000000", "104218.969000", "104219.994000", "104220.983000", "104222.036000", "104222.981000", "104223.996000", "104224.997000", "104225.976000", "104226.991000", "104227.996000", "104228.977000", "104229.990000", "104231.012000", "104231.986000", "104233.053000", "104233.991000", "104234.992000", "104235.977000", "104236.998000", "104238.013000", "104238.997000", "104239.990000", "104241.035000", "104241.986000", "104242.968000", "104243.976000", "104244.991000", "104246.008000", "104247.012000", "104247.992000", "104249.000000", "104249.983000", "104250.986000", "104251.991000", "104252.993000", "104253.965000", "104255.017000", "104255.997000", "104257.014000", "104257.987000", "104258.963000", "104300.007000", "104301.004000", "104301.996000", "104303.038000", "104304.018000", "104305.016000", "104305.987000", "104306.984000", "104308.020000", "104309.004000", "104309.981000", "104310.982000", "104311.992000", "104312.987000", "104314.011000", "104314.977000", "104315.992000", "104316.963000", "104317.943000", "104318.983000", "104319.996000", "104320.984000", "104322.000000", "104322.985000", "104323.977000", "104324.966000", "104326.009000", "104326.983000", "104327.998000", "104329.003000", "104329.979000", "104330.995000", "104332.012000", "104332.985000", "104333.966000", "104334.932000", "104335.987000", "104336.996000", "104338.012000", "104339.005000"],
      "InstanceNumber": [1, 2, 3, 4, 5, 6, 7, 8, 9, 10, 11, 12, 13, 14, 15, 16, 17, 18, 19, 20, 21, 22, 23, 24, 25, 26, 27, 28, 29, 30, 31, 32, 33, 34, 35, 36, 37, 38, 39, 40, 41, 42, 43, 44, 45, 46, 47, 48, 49, 50, 51, 52, 53, 54, 55, 56, 57, 58, 59, 60, 61, 62, 63, 64, 65, 66, 67, 68, 69, 70, 71, 72, 73, 74, 75, 76, 77, 78, 79, 80, 81, 82, 83, 84, 85, 86, 87, 88, 89, 90, 91, 92, 93, 94, 95, 96, 97, 98, 99, 100, 101, 102, 103, 104, 105, 106, 107, 108, 109, 110, 111, 112, 113, 114, 115, 116, 117, 118, 119, 120, 121, 122, 123, 124, 125, 126, 127, 128, 129, 130, 131, 132, 133, 134, 135, 136, 137, 138, 139, 140, 141, 142, 143, 144, 145, 146, 147, 148, 149, 150, 151, 152, 153, 154, 155, 156, 157, 158, 159, 160, 161, 162, 163, 164, 165, 166, 167, 168, 169, 170, 171, 172, 173, 174, 175, 176, 177, 178, 179, 180, 181, 182, 183, 184, 185, 186, 187, 188, 189, 190, 191, 192, 193, 194, 195, 196, 197, 198, 199, 200, 201, 202, 203, 204, 205, 206, 207, 208, 209, 210, 211, 212, 213, 214, 215, 216, 217, 218, 219, 220, 221, 222, 223, 224, 225, 226, 227, 228, 229, 230, 231, 232, 233, 234, 235, 236, 237, 238, 239, 240, 241, 242, 243, 244, 245, 246, 247, 248, 249, 250, 251, 252, 253, 254, 255, 256, 257, 258, 259, 260, 261, 262, 263, 264, 265, 266, 267, 268, 269, 270, 271, 272, 273, 274, 275, 276, 277, 278, 279, 280, 281, 282, 283, 284, 285, 286, 287, 288],
      "LargestImagePixelValue": [943, 679, 689, 1148, 1021, 868, 1237, 1258, 994, 789, 776, 990, 661, 944, 1004, 869, 698, 807, 1109, 699, 745, 688, 988, 653, 782, 700, 1062, 717, 796, 1193, 875, 1189, 1082, 1182, 648, 794, 795, 1026, 681, 732, 1195, 852, 707, 682, 680, 673, 668, 1018, 1036, 712, 1225, 1048, 671, 660, 864, 702, 671, 722, 1002, 702, 710, 1184, 799, 722, 680, 1174, 884, 650, 695, 758, 649, 728, 909, 761, 678, 661, 1189, 971, 862, 955, 1255, 830, 684, 929, 756, 698, 697, 1099, 907, 702, 1150, 1133, 866, 665, 711, 919, 685, 657, 886, 1066, 679, 995, 1061, 686, 705, 863, 688, 691, 694, 960, 822, 658, 820, 729, 695, 801, 1125, 999, 675, 1072, 755, 653, 673, 926, 684, 1056, 902, 844, 890, 1265, 1092, 785, 745, 1046, 659, 920, 1111, 1048, 753, 984, 1140, 692, 660, 708, 688, 698, 1188, 1113, 892, 664, 823, 685, 682, 893, 813, 696, 691, 951, 683, 674, 676, 696, 882, 765, 1191, 969, 713, 1196, 1077, 692, 685, 949, 685, 719, 1102, 1125, 934, 763, 1109, 699, 696, 733, 673, 785, 720, 988, 1310, 1091, 745, 1272, 900, 648, 720, 989, 653, 702, 898, 1085, 840, 1004, 1170, 854, 689, 1088, 1151, 664, 781, 677, 670, 665, 730, 695, 671, 831, 821, 831, 865, 1109, 1182, 656, 707, 730, 695, 668, 902, 1097, 884, 1096, 1322, 1042, 688, 696, 1090, 648, 779, 991, 1037, 689, 1015, 1057, 743, 1197, 1113, 717, 670, 661, 702, 655, 935, 1234, 1031, 717, 688, 827, 656, 709, 1032, 676, 696, 711, 672, 740, 961, 1116, 803, 700, 1025, 755, 737, 689, 943, 669, 778, 694, 685, 693, 929, 718, 804, 1040, 1111, 766, 1210, 1302, 1110, 753, 1132, 893],
      "WindowCenter": [351.0, 347.0, 347.0, 350.0, 349.0, 348.0, 350.0, 350.0, 349.0, 347.0, 347.0, 348.0, 346.0, 348.0, 348.0, 347.0, 346.0, 347.0, 349.0, 346.0, 347.0, 346.0, 348.0, 346.0, 347.0, 347.0, 349.0, 347.0, 348.0, 350.0, 348.0, 350.0, 349.0, 350.0, 346.0, 347.0, 348.0, 349.0, 346.0, 347.0, 350.0, 348.0, 347.0, 347.0, 347.0, 347.0, 347.0, 351.0, 350.0, 347.0, 350.0, 349.0, 346.0, 346.0, 349.0, 347.0, 347.0, 348.0, 349.0, 347.0, 348.0, 350.0, 348.0, 347.0, 347.0, 350.0, 348.0, 346.0, 347.0, 348.0, 346.0, 348.0, 349.0, 348.0, 347.0, 347.0, 351.0, 349.0, 349.0, 349.0, 350.0, 348.0, 346.0, 349.0, 347.0, 347.0, 347.0, 350.0, 348.0, 346.0, 350.0, 349.0, 347.0, 346.0, 347.0, 348.0, 346.0, 346.0, 348.0, 349.0, 346.0, 349.0, 349.0, 346.0, 347.0, 348.0, 346.0, 347.0, 347.0, 349.0, 348.0, 346.0, 348.0, 347.0, 347.0, 348.0, 350.0, 349.0, 346.0, 350.0, 347.0, 346.0, 347.0, 349.0, 347.0, 350.0, 349.0, 349.0, 349.0, 350.0, 350.0, 347.0, 347.0, 349.0, 346.0, 349.0, 350.0, 349.0, 347.0, 348.0, 349.0, 346.0, 346.0, 347.0, 346.0, 347.0, 350.0, 349.0, 348.0, 345.0, 347.0, 346.0, 346.0, 348.0, 347.0, 346.0, 346.0, 348.0, 346.0, 346.0, 347.0, 347.0, 349.0, 348.0, 350.0, 349.0, 347.0, 350.0, 349.0, 346.0, 346.0, 349.0, 346.0, 347.0, 350.0, 350.0, 348.0, 347.0, 349.0, 346.0, 346.0, 348.0, 348.0, 349.0, 348.0, 350.0, 351.0, 350.0, 347.0, 350.0, 348.0, 346.0, 347.0, 349.0, 346.0, 347.0, 349.0, 350.0, 348.0, 349.0, 350.0, 347.0, 346.0, 349.0, 349.0, 346.0, 347.0, 346.0, 346.0, 346.0, 348.0, 347.0, 347.0, 349.0, 348.0, 348.0, 349.0, 350.0, 350.0, 346.0, 347.0, 348.0, 347.0, 347.0, 349.0, 350.0, 349.0, 351.0, 351.0, 349.0, 346.0, 347.0, 350.0, 346.0, 348.0, 350.0, 349.0, 346.0, 350.0, 349.0, 347.0, 350.0, 350.0, 346.0, 346.0, 347.0, 347.0, 346.0, 349.0, 350.0, 349.0, 347.0, 347.0, 348.0, 347.0, 347.0, 350.0, 346.0, 347.0, 348.0, 347.0, 348.0, 350.0, 350.0, 347.0, 347.0, 350.0, 347.0, 348.0, 347.0, 349.0, 347.0, 349.0, 348.0, 348.0, 348.0, 350.0, 348.0, 349.0, 351.0, 351.0, 348.0, 352.0, 352.0, 351.0, 348.0, 351.0, 349.0],
      "WindowWidth": [752.0, 746.0, 746.0, 750.0, 748.0, 746.0, 749.0, 748.0, 747.0, 744.0, 745.0, 746.0, 743.0, 747.0, 747.0, 745.0, 743.0, 745.0, 747.0, 743.0, 745.0, 744.0, 747.0, 744.0, 746.0, 745.0, 748.0, 745.0, 747.0, 749.0, 746.0, 748.0, 748.0, 748.0, 743.0, 746.0, 746.0, 748.0, 744.0, 744.0, 749.0, 746.0, 745.0, 745.0, 746.0, 745.0, 746.0, 750.0, 749.0, 746.0, 750.0, 748.0, 743.0, 744.0, 747.0, 745.0, 745.0, 746.0, 748.0, 745.0, 746.0, 750.0, 746.0, 746.0, 745.0, 750.0, 747.0, 744.0, 745.0, 747.0, 744.0, 747.0, 749.0, 747.0, 746.0, 746.0, 751.0, 748.0, 748.0, 748.0, 749.0, 746.0, 744.0, 748.0, 746.0, 745.0, 745.0, 749.0, 746.0, 744.0, 748.0, 747.0, 745.0, 743.0, 745.0, 747.0, 743.0, 744.0, 747.0, 747.0, 744.0, 747.0, 748.0, 744.0, 745.0, 746.0, 744.0, 745.0, 745.0, 748.0, 747.0, 744.0, 746.0, 745.0, 745.0, 747.0, 749.0, 748.0, 744.0, 749.0, 745.0, 744.0, 746.0, 748.0, 745.0, 749.0, 747.0, 747.0, 747.0, 750.0, 748.0, 745.0, 746.0, 748.0, 744.0, 748.0, 748.0, 748.0, 744.0, 747.0, 747.0, 743.0, 744.0, 745.0, 744.0, 745.0, 749.0, 748.0, 745.0, 742.0, 745.0, 743.0, 744.0, 747.0, 745.0, 744.0, 744.0, 746.0, 743.0, 744.0, 745.0, 745.0, 747.0, 746.0, 750.0, 747.0, 745.0, 749.0, 748.0, 744.0, 744.0, 747.0, 744.0, 745.0, 749.0, 748.0, 746.0, 744.0, 748.0, 744.0, 744.0, 746.0, 746.0, 748.0, 748.0, 750.0, 751.0, 749.0, 744.0, 749.0, 746.0, 743.0, 745.0, 748.0, 744.0, 745.0, 748.0, 749.0, 747.0, 748.0, 748.0, 745.0, 744.0, 748.0, 747.0, 743.0, 745.0, 744.0, 744.0, 745.0, 746.0, 745.0, 745.0, 747.0, 747.0, 747.0, 748.0, 749.0, 748.0, 744.0, 745.0, 746.0, 745.0, 746.0, 749.0, 750.0, 747.0, 750.0, 750.0, 748.0, 744.0, 745.0, 749.0, 743.0, 746.0, 749.0, 748.0, 744.0, 749.0, 748.0, 745.0, 748.0, 748.0, 744.0, 744.0, 745.0, 745.0, 745.0, 748.0, 750.0, 748.0, 745.0, 745.0, 746.0, 745.0, 745.0, 749.0, 744.0, 745.0, 746.0, 745.0, 746.0, 749.0, 749.0, 746.0, 745.0, 749.0, 746.0, 746.0, 746.0, 749.0, 745.0, 748.0, 747.0, 747.0, 747.0, 750.0, 748.0, 748.0, 751.0, 751.0, 747.0, 752.0, 752.0, 750.0, 747.0, 751.0, 748.0]
    },
    "slices": {}
  }
}