{
  "AcquisitionMatrixPE": 96,
  "AcquisitionNumber": 1,
  "AcquisitionTime": "10:54:40.190000",
  "BandwidthPerPixelPhaseEncode": 18.939,
  "BaseResolution": 96,
  "BodyPartExamined": "BRAIN",
  "ConsistencyInfo": "N4_VE11C_LATEST_20160120",
  "ConversionSoftware": "dcm2niix",
  "ConversionSoftwareVersion": "v1.0.20170923 (OpenJPEG build) GCC6.3.0",
  "DerivedVendorReportedEchoSpacing": 0.000550011,
  "DeviceSerialNumber": "66112",
  "DwellTime": 2.2e-06,
  "EchoTime": 0.033,
  "EchoTrainLength": 96,
  "EffectiveEchoSpacing": 0.000550011,
  "FlipAngle": 59,
  "ImageType": [
    "ORIGINAL",
    "PRIMARY",
    "FMRI",
    "NONE",
    "ND",
    "NORM",
    "MOSAIC"
  ],
  "InstitutionAddress": "Maynard_3_Hanover_NH_US_03755",
  "InstitutionName": "Dartmouth_College_-_PBS",
  "MagneticFieldStrength": 3,
  "Manufacturer": "Siemens",
  "ManufacturersModelName": "Prisma",
  "Modality": "MR",
  "MultibandAccelerationFactor": 4,
  "PercentPhaseFOV": 100,
  "PhaseEncodingDirection": "j-",
  "PhaseEncodingSteps": 96,
  "PhaseResolution": 1,
  "ProcedureStepDescription": "Gobbini_Matteo_1038_hyperface",
  "ProtocolName": "func_run-07_task-visualmemory",
  "PulseSequenceDetails": "%SiemensSeq%_ep2d_bold",
  "ReceiveCoilActiveElements": "HEA;HEP",
  "ReceiveCoilName": "Head_32",
  "ReconMatrixPE": 96,
  "RepetitionTime": 1,
  "ScanOptions": "FS",
  "ScanningSequence": "EP",
  "SequenceName": "_epfid2d1_96",
  "SequenceVariant": "SK",
  "SeriesDescription": "func_run-07_task-visualmemory",
  "SliceTiming": [
    0.735,
    0,
    0.49,
    0.08,
    0.57,
    0.1625,
    0.6525,
    0.325,
    0.815,
    0.4075,
    0.8975,
    0.245,
    0.735,
    0,
    0.49,
    0.08,
    0.57,
    0.1625,
    0.6525,
    0.325,
    0.815,
    0.4075,
    0.8975,
    0.245,
    0.735,
    0,
    0.49,
    0.08,
    0.57,
    0.1625,
    0.6525,
    0.325,
    0.815,
    0.4075,
    0.8975,
    0.245,
    0.735,
    0,
    0.49,
    0.08,
    0.57,
    0.1625,
    0.6525,
    0.325,
    0.815,
    0.4075,
    0.8975,
    0.245
  ],
  "SoftwareVersions": "syngo_MR_E11",
  "StationName": "AWP66112",
  "TotalReadoutTime": 0.0522511,
  "dcmmeta_affine": [
    [
      -2.4992973804473877,
      0.006542987190186977,
      0.05890312045812607,
      121.58489227294922
    ],
    [
      0.013986007310450077,
      2.47965407371521,
      0.3179941475391388,
      -109.63279724121094
    ],
    [
      0.05759149044752121,
      -0.31823429465293884,
      2.4789936542510986,
      -67.83405303955078
    ],
    [
      0.0,
      0.0,
      0.0,
      1.0
    ]
  ],
  "dcmmeta_reorient_transform": [
    [
      0.0,
      -1.0,
      0.0,
      95.0
    ],
    [
      1.0,
      0.0,
      0.0,
      0.0
    ],
    [
      0.0,
      0.0,
      1.0,
      0.0
    ],
    [
      0.0,
      0.0,
      0.0,
      1.0
    ]
  ],
  "dcmmeta_shape": [
    96,
    96,
    48,
    288
  ],
  "dcmmeta_slice_dim": 2,
  "dcmmeta_version": 0.6,
  "global": {
    "const": {
      "AccessionNumber": "A001178",
      "AcquisitionMatrix": [
        96,
        0,
        0,
        96
      ],
      "AngioFlag": "N",
      "BitsAllocated": 16,
      "BitsStored": 12,
      "BodyPartExamined": "BRAIN",
      "Columns": 672,
      "EchoNumbers": 1,
      "EchoTime": 33.0,
      "EchoTrainLength": 96,
      "FlipAngle": 59.0,
      "HighBit": 11,
      "ImageOrientationPatient": [
        0.99971896945541,
        -0.0055944028935,
        0.02303659626074,
        0.00261719493057,
        0.99186161276698,
        0.12729372101552
      ],
      "ImagePositionPatient": [
        -843.88851720051,
        -836.04673025383,
        -206.30413887534
      ],
      "ImageType": [
        "ORIGINAL",
        "PRIMARY",
        "FMRI",
        "NONE",
        "ND",
        "NORM",
        "MOSAIC"
      ],
      "ImagedNucleus": "1H",
      "ImagingFrequency": 123.252328,
      "InPlanePhaseEncodingDirection": "COL",
      "MRAcquisitionType": "2D",
      "MagneticFieldStrength": 3.0,
      "Manufacturer": "SIEMENS",
      "ManufacturerModelName": "Prisma",
      "Modality": "MR",
      "NumberOfAverages": 1.0,
      "NumberOfPhaseEncodingSteps": 96,
      "PercentPhaseFieldOfView": 100.0,
      "PercentSampling": 100.0,
      "PerformedProcedureStepStartTime": "101828.004000",
      "PhotometricInterpretation": "MONOCHROME2",
      "PixelBandwidth": 2365.0,
      "PixelRepresentation": 0,
      "PixelSpacing": [
        2.5,
        2.5
      ],
      "PositionReferenceIndicator": "",
      "ProtocolName": "func_run-07_task-visualmemory",
      "RepetitionTime": 1000.0,
      "Rows": 672,
      "SAR": 0.04256864287908,
      "SamplesPerPixel": 1,
      "ScanOptions": "FS",
      "ScanningSequence": "EP",
      "SequenceName": "*epfid2d1_96",
      "SequenceVariant": "SK",
      "SeriesDescription": "func_run-07_task-visualmemory",
      "SeriesNumber": 49,
      "SeriesTime": "105441.467000",
      "SliceLocation": -78.344419410555,
      "SliceThickness": 2.5,
      "SmallestImagePixelValue": 0,
      "SoftwareVersions": "syngo MR E11",
      "SpacingBetweenSlices": 2.4999999820395,
      "SpecificCharacterSet": "ISO_IR 100",
      "StudyID": "2",
      "StudyTime": "101827.965000",
      "TransmitCoilName": "Body",
      "VariableFlipAngleFlag": "N",
      "WindowCenterWidthExplanation": "Algo1",
      "dBdt": 0.0
    },
    "slices": {}
  },
  "time": {
    "samples": {
      "AcquisitionNumber": [
        1,
        2,
        3,
        4,
        5,
        6,
        7,
        8,
        9,
        10,
        11,
        12,
        13,
        14,
        15,
        16,
        17,
        18,
        19,
        20,
        21,
        22,
        23,
        24,
        25,
        26,
        27,
        28,
        29,
        30,
        31,
        32,
        33,
        34,
        35,
        36,
        37,
        38,
        39,
        40,
        41,
        42,
        43,
        44,
        45,
        46,
        47,
        48,
        49,
        50,
        51,
        52,
        53,
        54,
        55,
        56,
        57,
        58,
        59,
        60,
        61,
        62,
        63,
        64,
        65,
        66,
        67,
        68,
        69,
        70,
        71,
        72,
        73,
        74,
        75,
        76,
        77,
        78,
        79,
        80,
        81,
        82,
        83,
        84,
        85,
        86,
        87,
        88,
        89,
        90,
        91,
        92,
        93,
        94,
        95,
        96,
        97,
        98,
        99,
        100,
        101,
        102,
        103,
        104,
        105,
        106,
        107,
        108,
        109,
        110,
        111,
        112,
        113,
        114,
        115,
        116,
        117,
        118,
        119,
        120,
        121,
        122,
        123,
        124,
        125,
        126,
        127,
        128,
        129,
        130,
        131,
        132,
        133,
        134,
        135,
        136,
        137,
        138,
        139,
        140,
        141,
        142,
        143,
        144,
        145,
        146,
        147,
        148,
        149,
        150,
        151,
        152,
        153,
        154,
        155,
        156,
        157,
        158,
        159,
        160,
        161,
        162,
        163,
        164,
        165,
        166,
        167,
        168,
        169,
        170,
        171,
        172,
        173,
        174,
        175,
        176,
        177,
        178,
        179,
        180,
        181,
        182,
        183,
        184,
        185,
        186,
        187,
        188,
        189,
        190,
        191,
        192,
        193,
        194,
        195,
        196,
        197,
        198,
        199,
        200,
        201,
        202,
        203,
        204,
        205,
        206,
        207,
        208,
        209,
        210,
        211,
        212,
        213,
        214,
        215,
        216,
        217,
        218,
        219,
        220,
        221,
        222,
        223,
        224,
        225,
        226,
        227,
        228,
        229,
        230,
        231,
        232,
        233,
        234,
        235,
        236,
        237,
        238,
        239,
        240,
        241,
        242,
        243,
        244,
        245,
        246,
        247,
        248,
        249,
        250,
        251,
        252,
        253,
        254,
        255,
        256,
        257,
        258,
        259,
        260,
        261,
        262,
        263,
        264,
        265,
        266,
        267,
        268,
        269,
        270,
        271,
        272,
        273,
        274,
        275,
        276,
        277,
        278,
        279,
        280,
        281,
        282,
        283,
        284,
        285,
        286,
        287,
        288
      ],
      "AcquisitionTime": [
        "105440.190000",
        "105441.190000",
        "105442.190000",
        "105443.190000",
        "105444.190000",
        "105445.190000",
        "105446.190000",
        "105447.190000",
        "105448.190000",
        "105449.190000",
        "105450.190000",
        "105451.190000",
        "105452.190000",
        "105453.190000",
        "105454.190000",
        "105455.190000",
        "105456.190000",
        "105457.190000",
        "105458.190000",
        "105459.190000",
        "105500.190000",
        "105501.190000",
        "105502.190000",
        "105503.190000",
        "105504.190000",
        "105505.190000",
        "105506.190000",
        "105507.190000",
        "105508.190000",
        "105509.190000",
        "105510.190000",
        "105511.190000",
        "105512.190000",
        "105513.190000",
        "105514.190000",
        "105515.190000",
        "105516.190000",
        "105517.190000",
        "105518.190000",
        "105519.190000",
        "105520.190000",
        "105521.190000",
        "105522.190000",
        "105523.190000",
        "105524.190000",
        "105525.190000",
        "105526.190000",
        "105527.190000",
        "105528.190000",
        "105529.190000",
        "105530.190000",
        "105531.190000",
        "105532.190000",
        "105533.190000",
        "105534.190000",
        "105535.190000",
        "105536.190000",
        "105537.190000",
        "105538.190000",
        "105539.190000",
        "105540.190000",
        "105541.190000",
        "105542.190000",
        "105543.190000",
        "105544.190000",
        "105545.190000",
        "105546.190000",
        "105547.190000",
        "105548.190000",
        "105549.190000",
        "105550.190000",
        "105551.190000",
        "105552.190000",
        "105553.190000",
        "105554.190000",
        "105555.190000",
        "105556.190000",
        "105557.190000",
        "105558.190000",
        "105559.190000",
        "105600.190000",
        "105601.190000",
        "105602.190000",
        "105603.190000",
        "105604.190000",
        "105605.190000",
        "105606.190000",
        "105607.190000",
        "105608.190000",
        "105609.190000",
        "105610.190000",
        "105611.190000",
        "105612.190000",
        "105613.190000",
        "105614.190000",
        "105615.190000",
        "105616.190000",
        "105617.190000",
        "105618.190000",
        "105619.190000",
        "105620.190000",
        "105621.190000",
        "105622.190000",
        "105623.190000",
        "105624.190000",
        "105625.190000",
        "105626.190000",
        "105627.190000",
        "105628.190000",
        "105629.190000",
        "105630.190000",
        "105631.190000",
        "105632.190000",
        "105633.190000",
        "105634.190000",
        "105635.190000",
        "105636.190000",
        "105637.190000",
        "105638.190000",
        "105639.190000",
        "105640.190000",
        "105641.190000",
        "105642.190000",
        "105643.190000",
        "105644.190000",
        "105645.190000",
        "105646.190000",
        "105647.190000",
        "105648.190000",
        "105649.190000",
        "105650.190000",
        "105651.190000",
        "105652.190000",
        "105653.190000",
        "105654.190000",
        "105655.190000",
        "105656.190000",
        "105657.190000",
        "105658.190000",
        "105659.190000",
        "105700.190000",
        "105701.190000",
        "105702.190000",
        "105703.190000",
        "105704.190000",
        "105705.190000",
        "105706.190000",
        "105707.190000",
        "105708.190000",
        "105709.190000",
        "105710.190000",
        "105711.190000",
        "105712.190000",
        "105713.190000",
        "105714.190000",
        "105715.190000",
        "105716.190000",
        "105717.190000",
        "105718.190000",
        "105719.190000",
        "105720.190000",
        "105721.190000",
        "105722.190000",
        "105723.190000",
        "105724.190000",
        "105725.190000",
        "105726.190000",
        "105727.190000",
        "105728.190000",
        "105729.190000",
        "105730.190000",
        "105731.190000",
        "105732.190000",
        "105733.190000",
        "105734.190000",
        "105735.190000",
        "105736.190000",
        "105737.190000",
        "105738.190000",
        "105739.190000",
        "105740.190000",
        "105741.190000",
        "105742.190000",
        "105743.190000",
        "105744.190000",
        "105745.190000",
        "105746.190000",
        "105747.190000",
        "105748.190000",
        "105749.190000",
        "105750.190000",
        "105751.190000",
        "105752.190000",
        "105753.190000",
        "105754.190000",
        "105755.190000",
        "105756.190000",
        "105757.190000",
        "105758.190000",
        "105759.190000",
        "105800.190000",
        "105801.190000",
        "105802.190000",
        "105803.190000",
        "105804.190000",
        "105805.190000",
        "105806.190000",
        "105807.190000",
        "105808.190000",
        "105809.190000",
        "105810.190000",
        "105811.190000",
        "105812.190000",
        "105813.190000",
        "105814.190000",
        "105815.190000",
        "105816.190000",
        "105817.190000",
        "105818.190000",
        "105819.190000",
        "105820.190000",
        "105821.190000",
        "105822.190000",
        "105823.190000",
        "105824.190000",
        "105825.190000",
        "105826.190000",
        "105827.190000",
        "105828.190000",
        "105829.190000",
        "105830.190000",
        "105831.190000",
        "105832.190000",
        "105833.190000",
        "105834.190000",
        "105835.190000",
        "105836.190000",
        "105837.190000",
        "105838.190000",
        "105839.190000",
        "105840.190000",
        "105841.190000",
        "105842.190000",
        "105843.190000",
        "105844.190000",
        "105845.190000",
        "105846.190000",
        "105847.190000",
        "105848.190000",
        "105849.190000",
        "105850.190000",
        "105851.190000",
        "105852.190000",
        "105853.190000",
        "105854.190000",
        "105855.190000",
        "105856.190000",
        "105857.190000",
        "105858.190000",
        "105859.190000",
        "105900.190000",
        "105901.190000",
        "105902.190000",
        "105903.190000",
        "105904.190000",
        "105905.190000",
        "105906.190000",
        "105907.190000",
        "105908.190000",
        "105909.190000",
        "105910.190000",
        "105911.190000",
        "105912.190000",
        "105913.190000",
        "105914.190000",
        "105915.190000",
        "105916.190000",
        "105917.190000",
        "105918.190000",
        "105919.190000",
        "105920.190000",
        "105921.190000",
        "105922.190000",
        "105923.190000",
        "105924.190000",
        "105925.190000",
        "105926.190000",
        "105927.190000"
      ],
      "ContentTime": [
        "105441.470000",
        "105442.307000",
        "105443.302000",
        "105444.322000",
        "105445.309000",
        "105446.298000",
        "105447.306000",
        "105448.310000",
        "105449.302000",
        "105450.274000",
        "105451.297000",
        "105452.315000",
        "105453.310000",
        "105454.314000",
        "105455.300000",
        "105456.297000",
        "105457.287000",
        "105458.324000",
        "105459.299000",
        "105500.308000",
        "105501.288000",
        "105502.369000",
        "105503.303000",
        "105504.329000",
        "105505.292000",
        "105506.303000",
        "105507.314000",
        "105508.312000",
        "105509.322000",
        "105510.304000",
        "105511.286000",
        "105512.283000",
        "105513.290000",
        "105514.286000",
        "105515.312000",
        "105516.304000",
        "105517.311000",
        "105518.288000",
        "105519.285000",
        "105520.266000",
        "105521.319000",
        "105522.313000",
        "105523.321000",
        "105524.323000",
        "105525.318000",
        "105526.310000",
        "105527.352000",
        "105528.327000",
        "105529.305000",
        "105530.309000",
        "105531.324000",
        "105532.312000",
        "105533.305000",
        "105534.339000",
        "105535.303000",
        "105536.306000",
        "105537.298000",
        "105538.359000",
        "105539.285000",
        "105540.291000",
        "105541.307000",
        "105542.307000",
        "105543.324000",
        "105544.339000",
        "105545.288000",
        "105546.317000",
        "105547.278000",
        "105548.304000",
        "105549.299000",
        "105550.315000",
        "105551.289000",
        "105552.293000",
        "105553.331000",
        "105554.320000",
        "105555.309000",
        "105556.307000",
        "105557.296000",
        "105558.323000",
        "105559.306000",
        "105600.320000",
        "105601.324000",
        "105602.302000",
        "105603.337000",
        "105604.335000",
        "105605.339000",
        "105606.321000",
        "105607.304000",
        "105608.278000",
        "105609.348000",
        "105610.330000",
        "105611.313000",
        "105612.311000",
        "105613.332000",
        "105614.335000",
        "105615.304000",
        "105616.298000",
        "105617.327000",
        "105618.335000",
        "105619.291000",
        "105620.324000",
        "105621.328000",
        "105622.351000",
        "105623.332000",
        "105624.343000",
        "105625.319000",
        "105626.307000",
        "105627.368000",
        "105628.310000",
        "105629.324000",
        "105630.306000",
        "105631.316000",
        "105632.321000",
        "105633.312000",
        "105634.320000",
        "105635.337000",
        "105636.354000",
        "105637.310000",
        "105638.353000",
        "105639.359000",
        "105640.336000",
        "105641.352000",
        "105642.322000",
        "105643.360000",
        "105644.252000",
        "105645.310000",
        "105646.387000",
        "105647.321000",
        "105648.282000",
        "105649.349000",
        "105650.358000",
        "105651.326000",
        "105652.279000",
        "105653.327000",
        "105654.306000",
        "105655.308000",
        "105656.319000",
        "105657.313000",
        "105658.298000",
        "105659.332000",
        "105700.286000",
        "105701.336000",
        "105702.302000",
        "105703.310000",
        "105704.441000",
        "105705.335000",
        "105706.299000",
        "105707.312000",
        "105708.322000",
        "105709.311000",
        "105710.334000",
        "105711.308000",
        "105712.310000",
        "105713.313000",
        "105714.345000",
        "105715.324000",
        "105716.310000",
        "105717.299000",
        "105718.341000",
        "105719.320000",
        "105720.325000",
        "105721.318000",
        "105722.309000",
        "105723.334000",
        "105724.284000",
        "105725.361000",
        "105726.306000",
        "105727.295000",
        "105728.316000",
        "105729.308000",
        "105730.329000",
        "105731.301000",
        "105732.317000",
        "105733.316000",
        "105734.315000",
        "105735.358000",
        "105736.347000",
        "105737.320000",
        "105738.261000",
        "105739.319000",
        "105740.290000",
        "105741.300000",
        "105742.317000",
        "105743.293000",
        "105744.273000",
        "105745.331000",
        "105746.325000",
        "105747.300000",
        "105748.321000",
        "105749.306000",
        "105750.334000",
        "105751.320000",
        "105752.293000",
        "105753.310000",
        "105754.324000",
        "105755.322000",
        "105756.309000",
        "105757.304000",
        "105758.355000",
        "105759.326000",
        "105800.313000",
        "105801.312000",
        "105802.312000",
        "105803.309000",
        "105804.351000",
        "105805.289000",
        "105806.322000",
        "105807.300000",
        "105808.299000",
        "105809.305000",
        "105810.323000",
        "105811.312000",
        "105812.316000",
        "105813.316000",
        "105814.312000",
        "105815.323000",
        "105816.291000",
        "105817.296000",
        "105818.301000",
        "105819.329000",
        "105820.331000",
        "105821.332000",
        "105822.325000",
        "105823.318000",
        "105824.330000",
        "105825.310000",
        "105826.331000",
        "105827.317000",
        "105828.349000",
        "105829.305000",
        "105830.312000",
        "105831.313000",
        "105832.311000",
        "105833.316000",
        "105834.327000",
        "105835.319000",
        "105836.301000",
        "105837.305000",
        "105838.303000",
        "105839.324000",
        "105840.332000",
        "105841.294000",
        "105842.320000",
        "105843.320000",
        "105844.318000",
        "105845.311000",
        "105846.333000",
        "105847.314000",
        "105848.322000",
        "105849.340000",
        "105850.324000",
        "105851.350000",
        "105852.310000",
        "105853.321000",
        "105854.344000",
        "105855.311000",
        "105856.337000",
        "105857.326000",
        "105858.341000",
        "105859.294000",
        "105900.314000",
        "105901.338000",
        "105902.337000",
        "105903.316000",
        "105904.325000",
        "105905.345000",
        "105906.329000",
        "105907.367000",
        "105908.313000",
        "105909.277000",
        "105910.297000",
        "105911.313000",
        "105912.336000",
        "105913.295000",
        "105914.299000",
        "105915.325000",
        "105916.312000",
        "105917.339000",
        "105918.333000",
        "105919.296000",
        "105920.318000",
        "105921.294000",
        "105922.317000",
        "105923.310000",
        "105924.301000",
        "105925.287000",
        "105926.271000",
        "105927.323000",
        "105928.333000"
      ],
      "InstanceCreationTime": [
        "105441.470000",
        "105442.307000",
        "105443.302000",
        "105444.322000",
        "105445.309000",
        "105446.298000",
        "105447.306000",
        "105448.310000",
        "105449.302000",
        "105450.274000",
        "105451.297000",
        "105452.315000",
        "105453.310000",
        "105454.314000",
        "105455.300000",
        "105456.297000",
        "105457.287000",
        "105458.324000",
        "105459.299000",
        "105500.308000",
        "105501.288000",
        "105502.369000",
        "105503.303000",
        "105504.329000",
        "105505.292000",
        "105506.303000",
        "105507.314000",
        "105508.312000",
        "105509.322000",
        "105510.304000",
        "105511.286000",
        "105512.283000",
        "105513.290000",
        "105514.286000",
        "105515.312000",
        "105516.304000",
        "105517.311000",
        "105518.288000",
        "105519.285000",
        "105520.266000",
        "105521.319000",
        "105522.313000",
        "105523.321000",
        "105524.323000",
        "105525.318000",
        "105526.310000",
        "105527.352000",
        "105528.327000",
        "105529.305000",
        "105530.309000",
        "105531.324000",
        "105532.312000",
        "105533.305000",
        "105534.339000",
        "105535.303000",
        "105536.306000",
        "105537.298000",
        "105538.359000",
        "105539.285000",
        "105540.291000",
        "105541.307000",
        "105542.307000",
        "105543.324000",
        "105544.339000",
        "105545.288000",
        "105546.317000",
        "105547.278000",
        "105548.304000",
        "105549.299000",
        "105550.315000",
        "105551.289000",
        "105552.293000",
        "105553.331000",
        "105554.320000",
        "105555.309000",
        "105556.307000",
        "105557.296000",
        "105558.323000",
        "105559.306000",
        "105600.320000",
        "105601.324000",
        "105602.302000",
        "105603.337000",
        "105604.335000",
        "105605.339000",
        "105606.321000",
        "105607.304000",
        "105608.278000",
        "105609.348000",
        "105610.330000",
        "105611.313000",
        "105612.311000",
        "105613.332000",
        "105614.335000",
        "105615.304000",
        "105616.298000",
        "105617.327000",
        "105618.335000",
        "105619.291000",
        "105620.324000",
        "105621.328000",
        "105622.351000",
        "105623.332000",
        "105624.343000",
        "105625.319000",
        "105626.307000",
        "105627.368000",
        "105628.310000",
        "105629.324000",
        "105630.306000",
        "105631.316000",
        "105632.321000",
        "105633.312000",
        "105634.320000",
        "105635.337000",
        "105636.354000",
        "105637.310000",
        "105638.353000",
        "105639.359000",
        "105640.336000",
        "105641.352000",
        "105642.322000",
        "105643.360000",
        "105644.252000",
        "105645.310000",
        "105646.387000",
        "105647.321000",
        "105648.282000",
        "105649.349000",
        "105650.358000",
        "105651.326000",
        "105652.279000",
        "105653.327000",
        "105654.306000",
        "105655.308000",
        "105656.319000",
        "105657.313000",
        "105658.298000",
        "105659.332000",
        "105700.286000",
        "105701.336000",
        "105702.302000",
        "105703.310000",
        "105704.441000",
        "105705.335000",
        "105706.299000",
        "105707.312000",
        "105708.322000",
        "105709.311000",
        "105710.334000",
        "105711.308000",
        "105712.310000",
        "105713.313000",
        "105714.345000",
        "105715.324000",
        "105716.310000",
        "105717.299000",
        "105718.341000",
        "105719.320000",
        "105720.325000",
        "105721.318000",
        "105722.309000",
        "105723.334000",
        "105724.284000",
        "105725.361000",
        "105726.306000",
        "105727.295000",
        "105728.316000",
        "105729.308000",
        "105730.329000",
        "105731.301000",
        "105732.317000",
        "105733.316000",
        "105734.315000",
        "105735.358000",
        "105736.347000",
        "105737.320000",
        "105738.261000",
        "105739.319000",
        "105740.290000",
        "105741.300000",
        "105742.317000",
        "105743.293000",
        "105744.273000",
        "105745.331000",
        "105746.325000",
        "105747.300000",
        "105748.321000",
        "105749.306000",
        "105750.334000",
        "105751.320000",
        "105752.293000",
        "105753.310000",
        "105754.324000",
        "105755.322000",
        "105756.309000",
        "105757.304000",
        "105758.355000",
        "105759.326000",
        "105800.313000",
        "105801.312000",
        "105802.312000",
        "105803.309000",
        "105804.351000",
        "105805.289000",
        "105806.322000",
        "105807.300000",
        "105808.299000",
        "105809.305000",
        "105810.323000",
        "105811.312000",
        "105812.316000",
        "105813.316000",
        "105814.312000",
        "105815.323000",
        "105816.291000",
        "105817.296000",
        "105818.301000",
        "105819.329000",
        "105820.331000",
        "105821.332000",
        "105822.325000",
        "105823.318000",
        "105824.330000",
        "105825.310000",
        "105826.331000",
        "105827.317000",
        "105828.349000",
        "105829.305000",
        "105830.312000",
        "105831.313000",
        "105832.311000",
        "105833.316000",
        "105834.327000",
        "105835.319000",
        "105836.301000",
        "105837.305000",
        "105838.303000",
        "105839.324000",
        "105840.332000",
        "105841.294000",
        "105842.320000",
        "105843.320000",
        "105844.318000",
        "105845.311000",
        "105846.333000",
        "105847.314000",
        "105848.322000",
        "105849.340000",
        "105850.324000",
        "105851.350000",
        "105852.310000",
        "105853.321000",
        "105854.344000",
        "105855.311000",
        "105856.337000",
