{
  "AcquisitionMatrixPE": 96,
  "AcquisitionNumber": 1,
  "AcquisitionTime": "10:22:57.532500",
  "BandwidthPerPixelPhaseEncode": 18.939,
  "BaseResolution": 96,
  "BodyPartExamined": "BRAIN",
  "ConsistencyInfo": "N4_VE11C_LATEST_20160120",
  "ConversionSoftware": "dcm2niix",
  "ConversionSoftwareVersion": "v1.0.20170923 (OpenJPEG build) GCC6.3.0",
  "DerivedVendorReportedEchoSpacing": 0.000550011,
  "DeviceSerialNumber": "66112",
  "DwellTime": 2.2e-06,
  "EchoTime": 0.033,
  "EchoTrainLength": 96,
  "EffectiveEchoSpacing": 0.000550011,
  "FlipAngle": 59,
  "ImageType": [
    "ORIGINAL",
    "PRIMARY",
    "FMRI",
    "NONE",
    "ND",
    "NORM",
    "MOSAIC"
  ],
  "InstitutionAddress": "Maynard_3_Hanover_NH_US_03755",
  "InstitutionName": "Dartmouth_College_-_PBS",
  "MagneticFieldStrength": 3,
  "Manufacturer": "Siemens",
  "ManufacturersModelName": "Prisma",
  "Modality": "MR",
  "MultibandAccelerationFactor": 4,
  "PercentPhaseFOV": 100,
  "PhaseEncodingDirection": "j-",
  "PhaseEncodingSteps": 96,
  "PhaseResolution": 1,
  "ProcedureStepDescription": "Gobbini_Matteo_1038_hyperface",
  "ProtocolName": "func_run-01_task-localizer",
  "PulseSequenceDetails": "%SiemensSeq%_ep2d_bold",
  "ReceiveCoilActiveElements": "HEA;HEP",
  "ReceiveCoilName": "Head_32",
  "ReconMatrixPE": 96,
  "RepetitionTime": 1,
  "ScanOptions": "FS",
  "ScanningSequence": "EP",
  "SequenceName": "_epfid2d1_96",
  "SequenceVariant": "SK",
  "SeriesDescription": "func_run-01_task-localizer",
  "SliceTiming": [
    0.735,
    0,
    0.49,
    0.08,
    0.57,
    0.1625,
    0.6525,
    0.325,
    0.815,
    0.4075,
    0.8975,
    0.245,
    0.735,
    0,
    0.49,
    0.08,
    0.57,
    0.1625,
    0.6525,
    0.325,
    0.815,
    0.4075,
    0.8975,
    0.245,
    0.735,
    0,
    0.49,
    0.08,
    0.57,
    0.1625,
    0.6525,
    0.325,
    0.815,
    0.4075,
    0.8975,
    0.245,
    0.735,
    0,
    0.49,
    0.08,
    0.57,
    0.1625,
    0.6525,
    0.325,
    0.815,
    0.4075,
    0.8975,
    0.245
  ],
  "SoftwareVersions": "syngo_MR_E11",
  "StationName": "AWP66112",
  "TotalReadoutTime": 0.0522511,
  "dcmmeta_affine": [
    [
      -2.4992973804473877,
      0.006542987190186977,
      0.05890312045812607,
      121.58489227294922
    ],
    [
      0.013986007310450077,
      2.47965407371521,
      0.3179941475391388,
      -109.63279724121094
    ],
    [
      0.05759149044752121,
      -0.31823429465293884,
      2.4789936542510986,
      -67.83405303955078
    ],
    [
      0.0,
      0.0,
      0.0,
      1.0
    ]
  ],
  "dcmmeta_reorient_transform": [
    [
      0.0,
      -1.0,
      0.0,
      95.0
    ],
    [
      1.0,
      0.0,
      0.0,
      0.0
    ],
    [
      0.0,
      0.0,
      1.0,
      0.0
    ],
    [
      0.0,
      0.0,
      0.0,
      1.0
    ]
  ],
  "dcmmeta_shape": [
    96,
    96,
    48,
    236
  ],
  "dcmmeta_slice_dim": 2,
  "dcmmeta_version": 0.6,
  "global": {
    "const": {
      "AccessionNumber": "A001178",
      "AcquisitionMatrix": [
        96,
        0,
        0,
        96
      ],
      "AngioFlag": "N",
      "BitsAllocated": 16,
      "BitsStored": 12,
      "BodyPartExamined": "BRAIN",
      "Columns": 672,
      "EchoNumbers": 1,
      "EchoTime": 33.0,
      "EchoTrainLength": 96,
      "FlipAngle": 59.0,
      "HighBit": 11,
      "ImageOrientationPatient": [
        0.99971896945541,
        -0.0055944028935,
        0.02303659626074,
        0.00261719493057,
        0.99186161276698,
        0.12729372101552
      ],
      "ImagePositionPatient": [
        -843.88851720051,
        -836.04673025383,
        -206.30413887534
      ],
      "ImageType": [
        "ORIGINAL",
        "PRIMARY",
        "FMRI",
        "NONE",
        "ND",
        "NORM",
        "MOSAIC"
      ],
      "ImagedNucleus": "1H",
      "ImagingFrequency": 123.25232,
      "InPlanePhaseEncodingDirection": "COL",
      "MRAcquisitionType": "2D",
      "MagneticFieldStrength": 3.0,
      "Manufacturer": "SIEMENS",
      "ManufacturerModelName": "Prisma",
      "Modality": "MR",
      "NumberOfAverages": 1.0,
      "NumberOfPhaseEncodingSteps": 96,
      "PercentPhaseFieldOfView": 100.0,
      "PercentSampling": 100.0,
      "PerformedProcedureStepStartTime": "101828.004000",
      "PhotometricInterpretation": "MONOCHROME2",
      "PixelBandwidth": 2365.0,
      "PixelRepresentation": 0,
      "PixelSpacing": [
        2.5,
        2.5
      ],
      "PositionReferenceIndicator": "",
      "ProtocolName": "func_run-01_task-localizer",
      "RepetitionTime": 1000.0,
      "Rows": 672,
      "SAR": 0.04246685488589,
      "SamplesPerPixel": 1,
      "ScanOptions": "FS",
      "ScanningSequence": "EP",
      "SequenceName": "*epfid2d1_96",
      "SequenceVariant": "SK",
      "SeriesDescription": "func_run-01_task-localizer",
      "SeriesNumber": 7,
      "SeriesTime": "102258.580000",
      "SliceLocation": -78.344419410555,
      "SliceThickness": 2.5,
      "SmallestImagePixelValue": 0,
      "SoftwareVersions": "syngo MR E11",
      "SpacingBetweenSlices": 2.4999999820395,
      "SpecificCharacterSet": "ISO_IR 100",
      "StudyID": "2",
      "StudyTime": "101827.965000",
      "TransmitCoilName": "Body",
      "VariableFlipAngleFlag": "N",
      "WindowCenterWidthExplanation": "Algo1",
      "dBdt": 0.0
    },
    "slices": {}
  },
  "time": {
    "samples": {
      "AcquisitionNumber": [
        1,
        2,
        3,
        4,
        5,
        6,
        7,
        8,
        9,
        10,
        11,
        12,
        13,
        14,
        15,
        16,
        17,
        18,
        19,
        20,
        21,
        22,
        23,
        24,
        25,
        26,
        27,
        28,
        29,
        30,
        31,
        32,
        33,
        34,
        35,
        36,
        37,
        38,
        39,
        40,
        41,
        42,
        43,
        44,
        45,
        46,
        47,
        48,
        49,
        50,
        51,
        52,
        53,
        54,
        55,
        56,
        57,
        58,
        59,
        60,
        61,
        62,
        63,
        64,
        65,
        66,
        67,
        68,
        69,
        70,
        71,
        72,
        73,
        74,
        75,
        76,
        77,
        78,
        79,
        80,
        81,
        82,
        83,
        84,
        85,
        86,
        87,
        88,
        89,
        90,
        91,
        92,
        93,
        94,
        95,
        96,
        97,
        98,
        99,
        100,
        101,
        102,
        103,
        104,
        105,
        106,
        107,
        108,
        109,
        110,
        111,
        112,
        113,
        114,
        115,
        116,
        117,
        118,
        119,
        120,
        121,
        122,
        123,
        124,
        125,
        126,
        127,
        128,
        129,
        130,
        131,
        132,
        133,
        134,
        135,
        136,
        137,
        138,
        139,
        140,
        141,
        142,
        143,
        144,
        145,
        146,
        147,
        148,
        149,
        150,
        151,
        152,
        153,
        154,
        155,
        156,
        157,
        158,
        159,
        160,
        161,
        162,
        163,
        164,
        165,
        166,
        167,
        168,
        169,
        170,
        171,
        172,
        173,
        174,
        175,
        176,
        177,
        178,
        179,
        180,
        181,
        182,
        183,
        184,
        185,
        186,
        187,
        188,
        189,
        190,
        191,
        192,
        193,
        194,
        195,
        196,
        197,
        198,
        199,
        200,
        201,
        202,
        203,
        204,
        205,
        206,
        207,
        208,
        209,
        210,
        211,
        212,
        213,
        214,
        215,
        216,
        217,
        218,
        219,
        220,
        221,
        222,
        223,
        224,
        225,
        226,
        227,
        228,
        229,
        230,
        231,
        232,
        233,
        234,
        235,
        236
      ],
      "AcquisitionTime": [
        "102257.532500",
        "102258.532500",
        "102259.532500",
        "102300.532500",
        "102301.532500",
        "102302.532500",
        "102303.532500",
        "102304.532500",
        "102305.532500",
        "102306.532500",
        "102307.532500",
        "102308.532500",
        "102309.532500",
        "102310.532500",
        "102311.532500",
        "102312.532500",
        "102313.532500",
        "102314.532500",
        "102315.532500",
        "102316.532500",
        "102317.532500",
        "102318.532500",
        "102319.532500",
        "102320.532500",
        "102321.532500",
        "102322.532500",
        "102323.532500",
        "102324.532500",
        "102325.532500",
        "102326.532500",
        "102327.532500",
        "102328.532500",
        "102329.532500",
        "102330.532500",
        "102331.532500",
        "102332.532500",
        "102333.532500",
        "102334.532500",
        "102335.532500",
        "102336.532500",
        "102337.532500",
        "102338.532500",
        "102339.532500",
        "102340.532500",
        "102341.532500",
        "102342.532500",
        "102343.532500",
        "102344.532500",
        "102345.532500",
        "102346.532500",
        "102347.532500",
        "102348.532500",
        "102349.532500",
        "102350.532500",
        "102351.532500",
        "102352.532500",
        "102353.532500",
        "102354.532500",
        "102355.532500",
        "102356.532500",
        "102357.532500",
        "102358.532500",
        "102359.532500",
        "102400.532500",
        "102401.532500",
        "102402.532500",
        "102403.532500",
        "102404.532500",
        "102405.532500",
        "102406.532500",
        "102407.532500",
        "102408.532500",
        "102409.532500",
        "102410.532500",
        "102411.532500",
        "102412.532500",
        "102413.532500",
        "102414.532500",
        "102415.532500",
        "102416.532500",
        "102417.532500",
        "102418.532500",
        "102419.532500",
        "102420.532500",
        "102421.532500",
        "102422.532500",
        "102423.532500",
        "102424.532500",
        "102425.532500",
        "102426.532500",
        "102427.532500",
        "102428.532500",
        "102429.532500",
        "102430.532500",
        "102431.532500",
        "102432.532500",
        "102433.532500",
        "102434.532500",
        "102435.532500",
        "102436.532500",
        "102437.532500",
        "102438.532500",
        "102439.532500",
        "102440.532500",
        "102441.532500",
        "102442.532500",
        "102443.532500",
        "102444.532500",
        "102445.532500",
        "102446.532500",
        "102447.532500",
        "102448.532500",
        "102449.532500",
        "102450.532500",
        "102451.532500",
        "102452.532500",
        "102453.532500",
        "102454.532500",
        "102455.532500",
        "102456.532500",
        "102457.532500",
        "102458.532500",
        "102459.532500",
        "102500.532500",
        "102501.532500",
        "102502.532500",
        "102503.532500",
        "102504.532500",
        "102505.532500",
        "102506.532500",
        "102507.532500",
        "102508.532500",
        "102509.532500",
        "102510.532500",
        "102511.532500",
        "102512.532500",
        "102513.532500",
        "102514.532500",
        "102515.532500",
        "102516.532500",
        "102517.532500",
        "102518.532500",
        "102519.532500",
        "102520.532500",
        "102521.532500",
        "102522.532500",
        "102523.532500",
        "102524.532500",
        "102525.532500",
        "102526.532500",
        "102527.532500",
        "102528.532500",
        "102529.532500",
        "102530.532500",
        "102531.532500",
        "102532.532500",
        "102533.532500",
        "102534.532500",
        "102535.532500",
        "102536.532500",
        "102537.532500",
        "102538.532500",
        "102539.532500",
        "102540.532500",
        "102541.532500",
        "102542.532500",
        "102543.532500",
        "102544.532500",
        "102545.532500",
        "102546.532500",
        "102547.532500",
        "102548.532500",
        "102549.532500",
        "102550.532500",
        "102551.532500",
        "102552.532500",
        "102553.532500",
        "102554.532500",
        "102555.532500",
        "102556.532500",
        "102557.532500",
        "102558.532500",
        "102559.532500",
        "102600.532500",
        "102601.532500",
        "102602.532500",
        "102603.532500",
        "102604.532500",
        "102605.532500",
        "102606.532500",
        "102607.532500",
        "102608.532500",
        "102609.532500",
        "102610.532500",
        "102611.532500",
        "102612.532500",
        "102613.532500",
        "102614.532500",
        "102615.532500",
        "102616.532500",
        "102617.532500",
        "102618.532500",
        "102619.532500",
        "102620.532500",
        "102621.532500",
        "102622.532500",
        "102623.532500",
        "102624.532500",
        "102625.532500",
        "102626.532500",
        "102627.532500",
        "102628.532500",
        "102629.532500",
        "102630.532500",
        "102631.532500",
        "102632.532500",
        "102633.532500",
        "102634.532500",
        "102635.532500",
        "102636.532500",
        "102637.532500",
        "102638.532500",
        "102639.532500",
        "102640.532500",
        "102641.532500",
        "102642.532500",
        "102643.532500",
        "102644.532500",
        "102645.532500",
        "102646.532500",
        "102647.532500",
        "102648.532500",
        "102649.532500",
        "102650.532500",
        "102651.532500",
        "102652.532500"
      ],
      "ContentTime": [
        "102258.584000",
        "102259.401000",
        "102300.386000",
        "102301.381000",
        "102302.382000",
        "102303.405000",
        "102304.367000",
        "102305.363000",
        "102306.397000",
        "102307.389000",
        "102308.360000",
        "102309.370000",
        "102310.375000",
        "102311.388000",
        "102312.341000",
        "102313.400000",
        "102314.373000",
        "102315.364000",
        "102316.397000",
        "102317.364000",
        "102318.356000",
        "102319.397000",
        "102320.374000",
        "102321.372000",
        "102322.404000",
        "102323.362000",
        "102324.400000",
        "102325.376000",
        "102326.386000",
        "102327.413000",
        "102328.407000",
        "102329.366000",
        "102330.362000",
        "102331.381000",
        "102332.374000",
        "102333.413000",
        "102334.391000",
        "102335.384000",
        "102336.368000",
        "102337.377000",
        "102338.390000",
        "102339.382000",
        "102340.364000",
        "102341.357000",
        "102342.359000",
        "102343.377000",
        "102344.401000",
        "102345.376000",
        "102346.405000",
        "102347.370000",
        "102348.379000",
        "102349.322000",
        "102350.392000",
        "102351.383000",
        "102352.387000",
        "102353.367000",
        "102354.381000",
        "102355.389000",
        "102356.379000",
        "102357.381000",
        "102358.375000",
        "102359.380000",
        "102400.376000",
        "102401.397000",
        "102402.403000",
        "102403.380000",
        "102404.403000",
        "102405.397000",
        "102406.368000",
        "102407.378000",
        "102408.383000",
        "102409.389000",
        "102410.393000",
        "102411.371000",
        "102412.391000",
        "102413.388000",
        "102414.384000",
        "102415.388000",
        "102416.381000",
        "102417.381000",
        "102418.382000",
        "102419.387000",
        "102420.369000",
        "102421.395000",
        "102422.362000",
        "102423.356000",
        "102424.381000",
        "102425.397000",
        "102426.369000",
        "102427.443000",
        "102428.416000",
        "102429.372000",
        "102430.390000",
        "102431.354000",
        "102432.375000",
        "102433.427000",
        "102434.384000",
        "102435.395000",
        "102436.406000",
        "102437.365000",
        "102438.385000",
        "102439.384000",
        "102440.346000",
        "102441.394000",
        "102442.378000",
        "102443.398000",
        "102444.409000",
        "102445.391000",
        "102446.370000",
        "102447.367000",
        "102448.395000",
        "102449.375000",
        "102450.392000",
        "102451.380000",
        "102452.385000",
        "102453.386000",
        "102454.351000",
        "102455.390000",
        "102456.369000",
        "102457.407000",
        "102458.382000",
        "102459.385000",
        "102500.398000",
        "102501.388000",
        "102502.368000",
        "102503.382000",
        "102504.382000",
        "102505.384000",
        "102506.391000",
        "102507.344000",
        "102508.354000",
        "102509.389000",
        "102510.381000",
        "102511.362000",
        "102512.383000",
        "102513.351000",
        "102514.373000",
        "102515.381000",
        "102516.387000",
        "102517.461000",
        "102518.371000",
        "102519.395000",
        "102520.470000",
        "102521.409000",
        "102522.370000",
        "102523.385000",
        "102524.391000",
        "102525.392000",
        "102526.418000",
        "102527.360000",
        "102528.355000",
        "102529.396000",
        "102530.349000",
        "102531.423000",
        "102532.421000",
        "102533.388000",
        "102534.412000",
        "102535.375000",
        "102536.390000",
        "102537.367000",
        "102538.399000",
        "102539.372000",
        "102540.380000",
        "102541.370000",
        "102542.392000",
        "102543.372000",
        "102544.358000",
        "102545.376000",
        "102546.367000",
        "102547.369000",
        "102548.425000",
        "102549.426000",
        "102550.402000",
        "102551.407000",
        "102552.408000",
        "102553.371000",
        "102554.402000",
        "102555.392000",
        "102556.377000",
        "102557.385000",
        "102558.399000",
        "102559.378000",
        "102600.372000",
        "102601.381000",
        "102602.412000",
        "102603.392000",
        "102604.397000",
        "102605.374000",
        "102606.374000",
        "102607.382000",
        "102608.383000",
        "102609.372000",
        "102610.398000",
        "102611.353000",
        "102612.405000",
        "102613.394000",
        "102614.383000",
        "102615.366000",
        "102616.398000",
        "102617.390000",
        "102618.350000",
        "102619.372000",
        "102620.409000",
        "102621.417000",
        "102622.387000",
        "102623.395000",
        "102624.395000",
        "102625.416000",
        "102626.371000",
        "102627.378000",
        "102628.384000",
        "102629.380000",
        "102630.375000",
        "102631.347000",
        "102632.402000",
        "102633.389000",
        "102634.376000",
        "102635.410000",
        "102636.384000",
        "102637.394000",
        "102638.325000",
        "102639.358000",
        "102640.397000",
        "102641.404000",
        "102642.366000",
        "102643.382000",
        "102644.384000",
        "102645.389000",
        "102646.364000",
        "102647.388000",
        "102648.399000",
        "102649.400000",
        "102650.364000",
        "102651.371000",
        "102652.395000",
        "102653.424000"
      ],
      "InstanceCreationTime": [
        "102258.584000",
        "102259.401000",
        "102300.386000",
        "102301.381000",
        "102302.382000",
        "102303.405000",
        "102304.367000",
        "102305.363000",
        "102306.397000",
        "102307.389000",
        "102308.360000",
        "102309.370000",
        "102310.375000",
        "102311.388000",
        "102312.341000",
        "102313.400000",
        "102314.373000",
        "102315.364000",
        "102316.397000",
        "102317.364000",
        "102318.356000",
        "102319.397000",
        "102320.374000",
        "102321.372000",
        "102322.404000",
        "102323.362000",
        "102324.400000",
        "102325.376000",
        "102326.386000",
        "102327.413000",
        "102328.407000",
        "102329.366000",
        "102330.362000",
        "102331.381000",
        "102332.374000",
        "102333.413000",
        "102334.391000",
        "102335.384000",
        "102336.368000",
        "102337.377000",
        "102338.390000",
        "102339.382000",
        "102340.364000",
        "102341.357000",
        "102342.359000",
        "102343.377000",
        "102344.401000",
        "102345.376000",
        "102346.405000",
        "102347.370000",
        "102348.379000",
        "102349.322000",
        "102350.392000",
        "102351.383000",
        "102352.387000",
        "102353.367000",
        "102354.381000",
        "102355.389000",
        "102356.379000",
        "102357.381000",
        "102358.375000",
        "102359.380000",
        "102400.376000",
        "102401.397000",
        "102402.403000",
        "102403.380000",
        "102404.403000",
        "102405.397000",
        "102406.368000",
        "102407.378000",
        "102408.383000",
        "102409.389000",
        "102410.393000",
        "102411.371000",
        "102412.391000",
        "102413.388000",
        "102414.384000",
        "102415.388000",
        "102416.381000",
        "102417.381000",
        "102418.382000",
        "102419.387000",
        "102420.369000",
        "102421.395000",
        "102422.362000",
        "102423.356000",
        "102424.381000",
        "102425.397000",
        "102426.369000",
        "102427.443000",
        "102428.416000",
        "102429.372000",
        "102430.390000",
        "102431.354000",
        "102432.375000",
        "102433.427000",
        "102434.384000",
        "102435.395000",
        "102436.406000",
        "102437.365000",
        "102438.385000",
        "102439.384000",
        "102440.346000",
        "102441.394000",
        "102442.378000",
        "102443.398000",
        "102444.409000",
        "102445.391000",
        "102446.370000",
        "102447.367000",
        "102448.395000",
        "102449.375000",
        "102450.392000",
        "102451.380000",
        "102452.385000",
        "102453.386000",
        "102454.351000",
        "102455.390000",
        "102456.369000",
        "102457.407000",
        "102458.382000",
        "102459.385000",
        "102500.398000",
        "102501.388000",
        "102502.368000",
        "102503.382000",
        "102504.382000",
        "102505.384000",
        "102506.391000",
        "102507.344000",
        "102508.354000",
        "102509.389000",
        "102510.381000",
        "102511.362000",
        "102512.383000",
        "102513.351000",
        "102514.373000",
        "102515.381000",
        "102516.387000",
        "102517.461000",
        "102518.371000",
        "102519.395000",
        "102520.470000",
        "102521.409000",
        "102522.370000",
        "102523.385000",
        "102524.391000",
        "102525.392000",
        "102526.418000",
        "102527.360000",
        "102528.355000",
        "102529.396000",
        "102530.349000",
        "102531.423000",
        "102532.421000",
        "102533.388000",
        "102534.412000",
        "102535.375000",
        "102536.390000",
        "102537.367000",
        "102538.399000",
        "102539.372000",
        "102540.380000",
        "102541.370000",
        "102542.392000",
        "102543.372000",
        "102544.358000",
        "102545.376000",
        "102546.367000",
        "102547.369000",
        "102548.425000",
        "102549.426000",
        "102550.402000",
        "102551.407000",
        "102552.408000",
        "102553.371000",
        "102554.402000",
        "102555.392000",
        "102556.377000",
        "102557.385000",
        "102558.399000",
        "102559.378000",
        "102600.372000",
        "102601.381000",
        "102602.412000",
        "102603.392000",
        "102604.397000",
        "102605.374000",
        "102606.374000",
        "102607.382000",
        "102608.383000",
        "102609.372000",
        "102610.398000",
        "102611.353000",
        "102612.405000",
        "102613.394000",
        "102614.383000",
        "102615.366000",
        "102616.398000",
        "102617.390000",
        "102618.350000",
        "102619.372000",
        "102620.409000",
        "102621.417000",
        "102622.387000",
        "102623.395000",
        "102624.395000",
        "102625.416000",
        "102626.371000",
        "102627.378000",
        "102628.384000",
        "102629.380000",
        "102630.375000",
        "102631.347000",
        "102632.402000",
        "102633.389000",
        "102634.376000",
        "102635.410000",
        "102636.384000",
        "102637.394000",
        "102638.325000",
        "102639.358000",
        "102640.397000",
        "102641.404000",
        "102642.366000",
        "102643.382000",
        "102644.384000",
        "102645.389000",
        "102646.364000",
        "102647.388000",
        "102648.399000",
        "102649.400000",
        "102650.364000",
        "102651.371000",
        "102652.395000",
        "102653.424000"
      ],
      "InstanceNumber": [
        1,
        2,
        3,
        4,
        5,
        6,
        7,
        8,
        9,
        10,
        11,
        12,
        13,
        14,
        15,
        16,
        17,
        18,
        19,
        20,
        21,
        22,
        23,
        24,
        25,
        26,
        27,
        28,
        29,
        30,
        31,
        32,
        33,
        34,
        35,
        36,
        37,
        38,
        39,
        40,
        41,
        42,
        43,
        44,
        45,
        46,
        47,
        48,
        49,
        50,
        51,
        52,
        53,
        54,
        55,
        56,
        57,
        58,
        59,
        60,
        61,
        62,
        63,
        64,
        65,
        66,
        67,
        68,
        69,
        70,
        71,
        72,
        73,
        74,
        75,
        76,
        77,
        78,
        79,
        80,
        81,
        82,
        83,
        84,
        85,
        86,
        87,
        88,
        89,
        90,
        91,
        92,
        93,
        94,
        95,
        96,
        97,
        98,
        99,
        100,
        101,
        102,
        103,
        104,
        105,
        106,
        107,
        108,
        109,
        110,
        111,
        112,
        113,
        114,
        115,
        116,
        117,
        118,
        119,
        120,
        121,
        122,
        123,
        124,
        125,
        126,
        127,
        128,
        129,
        130,
        131,
        132,
        133,
        134,
        135,
        136,
        137,
        138,
        139,
        140,
        141,
        142,
        143,
        144,
        145,
        146,
        147,
        148,
        149,
        150,
        151,
        152,
        153,
        154,
        155,
        156,
        157,
        158,
        159,
        160,
        161,
        162,
        163,
        164,
        165,
        166,
        167,
        168,
        169,
        170,
        171,
        172,
        173,
        174,
        175,
        176,
        177,
        178,
        179,
        180,
        181,
        182,
        183,
        184,
        185,
        186,
        187,
        188,
        189,
        190,
        191,
        192,
        193,
        194,
        195,
        196,
        197,
        198,
        199,
        200,
        201,
        202,
        203,
        204,
        205,
        206,
        207,
        208,
        209,
        210,
        211,
        212,
        213,
        214,
        215,
        216,
        217,
        218,
        219,
        220,
        221,
        222,
        223,
        224,
        225,
        226,
        227,
        228,
        229,
        230,
        231,
        232,
        233,
        234,
        235,
        236
      ],
      "LargestImagePixelValue": [
        746,
        959,
        975,
        785,
        784,
        1262,
        1006,
        1060,
        992,
        1047,
        773,
        822,
        949,
        1028,
        884,
        1107,
        900,
        745,
        729,
        775,
        700,
        1140,
        796,
        772,
        894,
        730,
        698,
        773,
        949,
        746,
        777,
        773,
        833,
        748,
        678,
        749,
        698,
        807,
        953,
        852,
        762,
        957,
        950,
        761,
        786,
        911,
        974,
        891,
        1034,
        1053,
        750,
        733,
        762,
        721,
        769,
        917,
        915,
        714,
