{
  "AcquisitionMatrixPE": 96,
  "AcquisitionNumber": 1,
  "AcquisitionTime": "10:44:22.495000",
  "BandwidthPerPixelPhaseEncode": 18.939,
  "BaseResolution": 96,
  "BodyPartExamined": "BRAIN",
  "ConsistencyInfo": "N4_VE11C_LATEST_20160120",
  "ConversionSoftware": "dcm2niix",
  "ConversionSoftwareVersion": "v1.0.20170923 (OpenJPEG build) GCC6.3.0",
  "DerivedVendorReportedEchoSpacing": 0.000550011,
  "DeviceSerialNumber": "66112",
  "DwellTime": 2.2e-06,
  "EchoTime": 0.033,
  "EchoTrainLength": 96,
  "EffectiveEchoSpacing": 0.000550011,
  "FlipAngle": 59,
  "ImageType": [
    "ORIGINAL",
    "PRIMARY",
    "FMRI",
    "NONE",
    "ND",
    "NORM",
    "MOSAIC"
  ],
  "InstitutionAddress": "Maynard_3_Hanover_NH_US_03755",
  "InstitutionName": "Dartmouth_College_-_PBS",
  "MagneticFieldStrength": 3,
  "Manufacturer": "Siemens",
  "ManufacturersModelName": "Prisma",
  "Modality": "MR",
  "MultibandAccelerationFactor": 4,
  "PercentPhaseFOV": 100,
  "PhaseEncodingDirection": "j-",
  "PhaseEncodingSteps": 96,
  "PhaseResolution": 1,
  "ProcedureStepDescription": "Gobbini_Matteo_1038_hyperface",
  "ProtocolName": "func_run-05_task-localizer",
  "PulseSequenceDetails": "%SiemensSeq%_ep2d_bold",
  "ReceiveCoilActiveElements": "HEA;HEP",
  "ReceiveCoilName": "Head_32",
  "ReconMatrixPE": 96,
  "RepetitionTime": 1,
  "ScanOptions": "FS",
  "ScanningSequence": "EP",
  "SequenceName": "_epfid2d1_96",
  "SequenceVariant": "SK",
  "SeriesDescription": "func_run-05_task-localizer",
  "SliceTiming": [
    0.735,
    0,
    0.49,
    0.08,
    0.57,
    0.1625,
    0.6525,
    0.325,
    0.815,
    0.4075,
    0.8975,
    0.245,
    0.735,
    0,
    0.49,
    0.08,
    0.57,
    0.1625,
    0.6525,
    0.325,
    0.815,
    0.4075,
    0.8975,
    0.245,
    0.735,
    0,
    0.49,
    0.08,
    0.57,
    0.1625,
    0.6525,
    0.325,
    0.815,
    0.4075,
    0.8975,
    0.245,
    0.735,
    0,
    0.49,
    0.08,
    0.57,
    0.1625,
    0.6525,
    0.325,
    0.815,
    0.4075,
    0.8975,
    0.245
  ],
  "SoftwareVersions": "syngo_MR_E11",
  "StationName": "AWP66112",
  "TotalReadoutTime": 0.0522511,
  "dcmmeta_affine": [
    [
      -2.4992973804473877,
      0.006542987190186977,
      0.05890312045812607,
      121.58489227294922
    ],
    [
      0.013986007310450077,
      2.47965407371521,
      0.3179941475391388,
      -109.63279724121094
    ],
    [
      0.05759149044752121,
      -0.31823429465293884,
      2.4789936542510986,
      -67.83405303955078
    ],
    [
      0.0,
      0.0,
      0.0,
      1.0
    ]
  ],
  "dcmmeta_reorient_transform": [
    [
      0.0,
      -1.0,
      0.0,
      95.0
    ],
    [
      1.0,
      0.0,
      0.0,
      0.0
    ],
    [
      0.0,
      0.0,
      1.0,
      0.0
    ],
    [
      0.0,
      0.0,
      0.0,
      1.0
    ]
  ],
  "dcmmeta_shape": [
    96,
    96,
    48,
    236
  ],
  "dcmmeta_slice_dim": 2,
  "dcmmeta_version": 0.6,
  "global": {
    "const": {
      "AccessionNumber": "A001178",
      "AcquisitionMatrix": [
        96,
        0,
        0,
        96
      ],
      "AngioFlag": "N",
      "BitsAllocated": 16,
      "BitsStored": 12,
      "BodyPartExamined": "BRAIN",
      "Columns": 672,
      "EchoNumbers": 1,
      "EchoTime": 33.0,
      "EchoTrainLength": 96,
      "FlipAngle": 59.0,
      "HighBit": 11,
      "ImageOrientationPatient": [
        0.99971896945541,
        -0.0055944028935,
        0.02303659626074,
        0.00261719493057,
        0.99186161276698,
        0.12729372101552
      ],
      "ImagePositionPatient": [
        -843.88851720051,
        -836.04673025383,
        -206.30413887534
      ],
      "ImageType": [
        "ORIGINAL",
        "PRIMARY",
        "FMRI",
        "NONE",
        "ND",
        "NORM",
        "MOSAIC"
      ],
      "ImagedNucleus": "1H",
      "ImagingFrequency": 123.252327,
      "InPlanePhaseEncodingDirection": "COL",
      "MRAcquisitionType": "2D",
      "MagneticFieldStrength": 3.0,
      "Manufacturer": "SIEMENS",
      "ManufacturerModelName": "Prisma",
      "Modality": "MR",
      "NumberOfAverages": 1.0,
      "NumberOfPhaseEncodingSteps": 96,
      "PercentPhaseFieldOfView": 100.0,
      "PercentSampling": 100.0,
      "PerformedProcedureStepStartTime": "101828.004000",
      "PhotometricInterpretation": "MONOCHROME2",
      "PixelBandwidth": 2365.0,
      "PixelRepresentation": 0,
      "PixelSpacing": [
        2.5,
        2.5
      ],
      "PositionReferenceIndicator": "",
      "ProtocolName": "func_run-05_task-localizer",
      "RepetitionTime": 1000.0,
      "Rows": 672,
      "SAR": 0.04246685488589,
      "SamplesPerPixel": 1,
      "ScanOptions": "FS",
      "ScanningSequence": "EP",
      "SequenceName": "*epfid2d1_96",
      "SequenceVariant": "SK",
      "SeriesDescription": "func_run-05_task-localizer",
      "SeriesNumber": 35,
      "SeriesTime": "104424.096000",
      "SliceLocation": -78.344419410555,
      "SliceThickness": 2.5,
      "SmallestImagePixelValue": 0,
      "SoftwareVersions": "syngo MR E11",
      "SpacingBetweenSlices": 2.4999999820395,
      "SpecificCharacterSet": "ISO_IR 100",
      "StudyID": "2",
      "StudyTime": "101827.965000",
      "TransmitCoilName": "Body",
      "VariableFlipAngleFlag": "N",
      "WindowCenterWidthExplanation": "Algo1",
      "dBdt": 0.0
    },
    "slices": {}
  },
  "time": {
    "samples": {
      "AcquisitionNumber": [
        1,
        2,
        3,
        4,
        5,
        6,
        7,
        8,
        9,
        10,
        11,
        12,
        13,
        14,
        15,
        16,
        17,
        18,
        19,
        20,
        21,
        22,
        23,
        24,
        25,
        26,
        27,
        28,
        29,
        30,
        31,
        32,
        33,
        34,
        35,
        36,
        37,
        38,
        39,
        40,
        41,
        42,
        43,
        44,
        45,
        46,
        47,
        48,
        49,
        50,
        51,
        52,
        53,
        54,
        55,
        56,
        57,
        58,
        59,
        60,
        61,
        62,
        63,
        64,
        65,
        66,
        67,
        68,
        69,
        70,
        71,
        72,
        73,
        74,
        75,
        76,
        77,
        78,
        79,
        80,
        81,
        82,
        83,
        84,
        85,
        86,
        87,
        88,
        89,
        90,
        91,
        92,
        93,
        94,
        95,
        96,
        97,
        98,
        99,
        100,
        101,
        102,
        103,
        104,
        105,
        106,
        107,
        108,
        109,
        110,
        111,
        112,
        113,
        114,
        115,
        116,
        117,
        118,
        119,
        120,
        121,
        122,
        123,
        124,
        125,
        126,
        127,
        128,
        129,
        130,
        131,
        132,
        133,
        134,
        135,
        136,
        137,
        138,
        139,
        140,
        141,
        142,
        143,
        144,
        145,
        146,
        147,
        148,
        149,
        150,
        151,
        152,
        153,
        154,
        155,
        156,
        157,
        158,
        159,
        160,
        161,
        162,
        163,
        164,
        165,
        166,
        167,
        168,
        169,
        170,
        171,
        172,
        173,
        174,
        175,
        176,
        177,
        178,
        179,
        180,
        181,
        182,
        183,
        184,
        185,
        186,
        187,
        188,
        189,
        190,
        191,
        192,
        193,
        194,
        195,
        196,
        197,
        198,
        199,
        200,
        201,
        202,
        203,
        204,
        205,
        206,
        207,
        208,
        209,
        210,
        211,
        212,
        213,
        214,
        215,
        216,
        217,
        218,
        219,
        220,
        221,
        222,
        223,
        224,
        225,
        226,
        227,
        228,
        229,
        230,
        231,
        232,
        233,
        234,
        235,
        236
      ],
      "AcquisitionTime": [
        "104422.495000",
        "104423.495000",
        "104424.495000",
        "104425.495000",
        "104426.495000",
        "104427.495000",
        "104428.495000",
        "104429.495000",
        "104430.495000",
        "104431.495000",
        "104432.495000",
        "104433.495000",
        "104434.495000",
        "104435.495000",
        "104436.495000",
        "104437.495000",
        "104438.495000",
        "104439.495000",
        "104440.495000",
        "104441.495000",
        "104442.495000",
        "104443.495000",
        "104444.495000",
        "104445.495000",
        "104446.495000",
        "104447.495000",
        "104448.495000",
        "104449.495000",
        "104450.495000",
        "104451.495000",
        "104452.495000",
        "104453.495000",
        "104454.495000",
        "104455.495000",
        "104456.495000",
        "104457.495000",
        "104458.495000",
        "104459.495000",
        "104500.495000",
        "104501.495000",
        "104502.495000",
        "104503.495000",
        "104504.495000",
        "104505.495000",
        "104506.495000",
        "104507.495000",
        "104508.495000",
        "104509.495000",
        "104510.495000",
        "104511.495000",
        "104512.495000",
        "104513.495000",
        "104514.495000",
        "104515.495000",
        "104516.495000",
        "104517.495000",
        "104518.495000",
        "104519.495000",
        "104520.495000",
        "104521.495000",
        "104522.495000",
        "104523.495000",
        "104524.495000",
        "104525.495000",
        "104526.495000",
        "104527.495000",
        "104528.495000",
        "104529.495000",
        "104530.495000",
        "104531.495000",
        "104532.495000",
        "104533.495000",
        "104534.495000",
        "104535.495000",
        "104536.495000",
        "104537.495000",
        "104538.495000",
        "104539.495000",
        "104540.495000",
        "104541.495000",
        "104542.495000",
        "104543.495000",
        "104544.495000",
        "104545.495000",
        "104546.495000",
        "104547.495000",
        "104548.495000",
        "104549.495000",
        "104550.495000",
        "104551.495000",
        "104552.495000",
        "104553.495000",
        "104554.495000",
        "104555.495000",
        "104556.495000",
        "104557.495000",
        "104558.495000",
        "104559.495000",
        "104600.495000",
        "104601.495000",
        "104602.495000",
        "104603.495000",
        "104604.495000",
        "104605.495000",
        "104606.495000",
        "104607.495000",
        "104608.495000",
        "104609.495000",
        "104610.495000",
        "104611.495000",
        "104612.495000",
        "104613.495000",
        "104614.495000",
        "104615.495000",
        "104616.495000",
        "104617.495000",
        "104618.495000",
        "104619.495000",
        "104620.495000",
        "104621.495000",
        "104622.495000",
        "104623.495000",
        "104624.495000",
        "104625.495000",
        "104626.495000",
        "104627.495000",
        "104628.495000",
        "104629.495000",
        "104630.495000",
        "104631.495000",
        "104632.495000",
        "104633.495000",
        "104634.495000",
        "104635.495000",
        "104636.495000",
        "104637.495000",
        "104638.495000",
        "104639.495000",
        "104640.495000",
        "104641.495000",
        "104642.495000",
        "104643.495000",
        "104644.495000",
        "104645.495000",
        "104646.495000",
        "104647.495000",
        "104648.495000",
        "104649.495000",
        "104650.495000",
        "104651.495000",
        "104652.495000",
        "104653.495000",
        "104654.495000",
        "104655.495000",
        "104656.495000",
        "104657.495000",
        "104658.495000",
        "104659.495000",
        "104700.495000",
        "104701.495000",
        "104702.495000",
        "104703.495000",
        "104704.495000",
        "104705.495000",
        "104706.495000",
        "104707.495000",
        "104708.495000",
        "104709.495000",
        "104710.495000",
        "104711.495000",
        "104712.495000",
        "104713.495000",
        "104714.495000",
        "104715.495000",
        "104716.495000",
        "104717.495000",
        "104718.495000",
        "104719.495000",
        "104720.495000",
        "104721.495000",
        "104722.495000",
        "104723.495000",
        "104724.495000",
        "104725.495000",
        "104726.495000",
        "104727.495000",
        "104728.495000",
        "104729.495000",
        "104730.495000",
        "104731.495000",
        "104732.495000",
        "104733.495000",
        "104734.495000",
        "104735.495000",
        "104736.495000",
        "104737.495000",
        "104738.495000",
        "104739.495000",
        "104740.495000",
        "104741.495000",
        "104742.495000",
        "104743.495000",
        "104744.495000",
        "104745.495000",
        "104746.495000",
        "104747.495000",
        "104748.495000",
        "104749.495000",
        "104750.495000",
        "104751.495000",
        "104752.495000",
        "104753.495000",
        "104754.495000",
        "104755.495000",
        "104756.495000",
        "104757.495000",
        "104758.495000",
        "104759.495000",
        "104800.495000",
        "104801.495000",
        "104802.495000",
        "104803.495000",
        "104804.495000",
        "104805.495000",
        "104806.495000",
        "104807.495000",
        "104808.495000",
        "104809.495000",
        "104810.495000",
        "104811.495000",
        "104812.495000",
        "104813.495000",
        "104814.495000",
        "104815.495000",
        "104816.495000",
        "104817.495000"
      ],
      "ContentTime": [
        "104424.099000",
        "104424.935000",
        "104425.927000",
        "104426.894000",
        "104427.898000",
        "104428.924000",
        "104429.916000",
        "104430.923000",
        "104431.909000",
        "104432.925000",
        "104433.904000",
        "104434.891000",
        "104435.899000",
        "104436.867000",
        "104437.906000",
        "104438.950000",
        "104439.891000",
        "104440.890000",
        "104441.885000",
        "104442.970000",
        "104443.898000",
        "104444.906000",
        "104445.900000",
        "104446.890000",
        "104447.909000",
        "104448.927000",
        "104449.912000",
        "104450.874000",
        "104451.908000",
        "104452.889000",
        "104453.914000",
        "104454.905000",
        "104455.905000",
        "104456.870000",
        "104457.912000",
        "104458.901000",
        "104459.943000",
        "104500.904000",
        "104501.937000",
        "104502.888000",
        "104503.924000",
        "104504.899000",
        "104505.884000",
        "104506.906000",
        "104507.898000",
        "104508.903000",
        "104509.922000",
        "104510.882000",
        "104511.890000",
        "104512.901000",
        "104513.905000",
        "104514.890000",
        "104515.889000",
        "104516.886000",
        "104517.919000",
        "104518.956000",
        "104519.899000",
        "104520.908000",
        "104521.891000",
        "104522.889000",
        "104523.881000",
        "104524.898000",
        "104525.904000",
        "104526.888000",
        "104527.894000",
        "104528.916000",
        "104529.921000",
        "104530.934000",
        "104531.929000",
        "104532.888000",
        "104533.904000",
        "104534.884000",
        "104535.911000",
        "104536.912000",
        "104537.895000",
        "104538.899000",
        "104539.902000",
        "104540.886000",
        "104541.896000",
        "104542.880000",
        "104543.895000",
        "104544.874000",
        "104545.889000",
        "104546.888000",
        "104547.913000",
        "104548.935000",
        "104549.901000",
        "104550.919000",
        "104551.901000",
        "104552.893000",
        "104553.890000",
        "104554.916000",
        "104555.904000",
        "104556.904000",
        "104557.927000",
        "104558.878000",
        "104559.905000",
        "104600.906000",
        "104601.931000",
        "104602.898000",
        "104603.915000",
        "104604.907000",
        "104605.924000",
        "104606.899000",
        "104607.913000",
        "104608.923000",
        "104609.882000",
        "104610.929000",
        "104611.897000",
        "104612.913000",
        "104613.917000",
        "104614.937000",
        "104615.934000",
        "104616.899000",
        "104617.912000",
        "104618.903000",
        "104619.913000",
        "104620.905000",
        "104621.900000",
        "104622.901000",
        "104623.896000",
        "104624.906000",
        "104625.924000",
        "104626.901000",
        "104627.946000",
        "104628.913000",
        "104629.919000",
        "104630.912000",
        "104631.934000",
        "104632.917000",
        "104633.927000",
        "104634.921000",
        "104635.950000",
        "104636.868000",
        "104637.889000",
        "104638.918000",
        "104639.912000",
        "104640.906000",
        "104641.948000",
        "104642.936000",
        "104643.910000",
        "104644.905000",
        "104645.904000",
        "104646.931000",
        "104647.924000",
        "104648.868000",
        "104649.903000",
        "104650.925000",
        "104651.925000",
        "104652.916000",
        "104653.907000",
        "104654.874000",
        "104655.890000",
        "104656.879000",
        "104657.904000",
        "104658.913000",
        "104659.899000",
        "104700.900000",
        "104701.920000",
        "104702.898000",
        "104703.949000",
        "104704.917000",
        "104705.910000",
        "104706.928000",
        "104707.896000",
        "104708.926000",
        "104709.910000",
        "104710.900000",
        "104711.910000",
        "104712.901000",
        "104713.916000",
        "104714.906000",
        "104715.910000",
        "104716.904000",
        "104717.917000",
        "104718.928000",
        "104719.884000",
        "104720.895000",
        "104721.919000",
        "104722.905000",
        "104723.900000",
        "104724.902000",
        "104725.921000",
        "104726.935000",
        "104727.905000",
        "104728.912000",
        "104729.906000",
        "104730.899000",
        "104731.906000",
        "104732.875000",
        "104733.905000",
        "104734.916000",
        "104735.909000",
        "104736.900000",
        "104737.895000",
        "104738.910000",
        "104739.900000",
        "104740.912000",
        "104741.920000",
        "104742.907000",
        "104743.901000",
        "104744.892000",
        "104745.925000",
        "104746.909000",
        "104747.908000",
        "104748.913000",
        "104749.882000",
        "104750.915000",
        "104751.938000",
        "104752.909000",
        "104753.944000",
        "104754.906000",
        "104755.891000",
        "104756.892000",
        "104757.899000",
        "104758.914000",
        "104759.899000",
        "104800.910000",
        "104801.919000",
        "104802.897000",
        "104803.923000",
        "104804.906000",
        "104805.913000",
        "104806.890000",
        "104807.896000",
        "104808.912000",
        "104809.907000",
        "104810.914000",
        "104811.951000",
        "104812.895000",
        "104813.913000",
        "104814.903000",
        "104815.888000",
        "104816.926000",
        "104817.915000",
        "104818.922000"
      ],
      "InstanceCreationTime": [
        "104424.099000",
        "104424.935000",
        "104425.927000",
        "104426.894000",
        "104427.898000",
        "104428.924000",
        "104429.916000",
        "104430.923000",
        "104431.909000",
        "104432.925000",
        "104433.904000",
        "104434.891000",
        "104435.899000",
        "104436.867000",
        "104437.906000",
        "104438.950000",
        "104439.891000",
        "104440.890000",
        "104441.885000",
        "104442.970000",
        "104443.898000",
        "104444.906000",
        "104445.900000",
        "104446.890000",
        "104447.909000",
        "104448.927000",
        "104449.912000",
        "104450.874000",
        "104451.908000",
        "104452.889000",
        "104453.914000",
        "104454.905000",
        "104455.905000",
        "104456.870000",
        "104457.912000",
        "104458.901000",
        "104459.943000",
        "104500.904000",
        "104501.937000",
        "104502.888000",
        "104503.924000",
        "104504.899000",
        "104505.884000",
        "104506.906000",
        "104507.898000",
        "104508.903000",
        "104509.922000",
        "104510.882000",
        "104511.890000",
        "104512.901000",
        "104513.905000",
        "104514.890000",
        "104515.889000",
        "104516.886000",
        "104517.919000",
        "104518.956000",
        "104519.899000",
        "104520.908000",
        "104521.891000",
        "104522.889000",
        "104523.881000",
        "104524.898000",
        "104525.904000",
        "104526.888000",
        "104527.894000",
        "104528.916000",
        "104529.921000",
        "104530.934000",
        "104531.929000",
        "104532.888000",
        "104533.904000",
        "104534.884000",
        "104535.911000",
        "104536.912000",
        "104537.895000",
        "104538.899000",
        "104539.902000",
        "104540.886000",
        "104541.896000",
        "104542.880000",
        "104543.895000",
        "104544.874000",
        "104545.889000",
        "104546.888000",
        "104547.913000",
        "104548.935000",
        "104549.901000",
        "104550.919000",
        "104551.901000",
        "104552.893000",
        "104553.890000",
        "104554.916000",
        "104555.904000",
        "104556.904000",
        "104557.927000",
        "104558.878000",
        "104559.905000",
        "104600.906000",
        "104601.931000",
        "104602.898000",
        "104603.915000",
        "104604.907000",
        "104605.924000",
        "104606.899000",
        "104607.913000",
        "104608.923000",
        "104609.882000",
        "104610.929000",
        "104611.897000",
        "104612.913000",
        "104613.917000",
        "104614.937000",
        "104615.934000",
        "104616.899000",
        "104617.912000",
        "104618.903000",
        "104619.913000",
        "104620.905000",
        "104621.900000",
        "104622.901000",
        "104623.896000",
        "104624.906000",
        "104625.924000",
        "104626.901000",
        "104627.946000",
        "104628.913000",
        "104629.919000",
        "104630.912000",
        "104631.934000",
        "104632.917000",
        "104633.927000",
        "104634.921000",
        "104635.950000",
        "104636.868000",
        "104637.889000",
        "104638.918000",
        "104639.912000",
        "104640.906000",
        "104641.948000",
        "104642.936000",
        "104643.910000",
        "104644.905000",
        "104645.904000",
        "104646.931000",
        "104647.924000",
        "104648.868000",
        "104649.903000",
        "104650.925000",
        "104651.925000",
        "104652.916000",
        "104653.907000",
        "104654.874000",
        "104655.890000",
        "104656.879000",
        "104657.904000",
        "104658.913000",
        "104659.899000",
        "104700.900000",
        "104701.920000",
        "104702.898000",
        "104703.949000",
        "104704.917000",
        "104705.910000",
        "104706.928000",
        "104707.896000",
        "104708.926000",
        "104709.910000",
        "104710.900000",
        "104711.910000",
        "104712.901000",
        "104713.916000",
        "104714.906000",
        "104715.910000",
        "104716.904000",
        "104717.917000",
        "104718.928000",
        "104719.884000",
        "104720.895000",
        "104721.919000",
        "104722.905000",
        "104723.900000",
        "104724.902000",
        "104725.921000",
        "104726.935000",
        "104727.905000",
        "104728.912000",
        "104729.906000",
        "104730.899000",
        "104731.906000",
        "104732.875000",
        "104733.905000",
        "104734.916000",
        "104735.909000",
        "104736.900000",
        "104737.895000",
        "104738.910000",
        "104739.900000",
        "104740.912000",
        "104741.920000",
        "104742.907000",
        "104743.901000",
        "104744.892000",
        "104745.925000",
        "104746.909000",
        "104747.908000",
        "104748.913000",
        "104749.882000",
        "104750.915000",
        "104751.938000",
        "104752.909000",
        "104753.944000",
        "104754.906000",
        "104755.891000",
        "104756.892000",
        "104757.899000",
        "104758.914000",
        "104759.899000",
        "104800.910000",
        "104801.919000",
        "104802.897000",
        "104803.923000",
        "104804.906000",
        "104805.913000",
        "104806.890000",
        "104807.896000",
        "104808.912000",
        "104809.907000",
        "104810.914000",
        "104811.951000",
        "104812.895000",
        "104813.913000",
        "104814.903000",
        "104815.888000",
        "104816.926000",
        "104817.915000",
        "104818.922000"
      ],
      "InstanceNumber": [
        1,
        2,
        3,
        4,
        5,
        6,
        7,
        8,
        9,
        10,
        11,
        12,
        13,
        14,
        15,
        16,
        17,
        18,
        19,
        20,
        21,
        22,
        23,
        24,
        25,
        26,
        27,
        28,
        29,
        30,
        31,
        32,
        33,
        34,
        35,
        36,
        37,
        38,
        39,
        40,
        41,
        42,
        43,
        44,
        45,
        46,
        47,
        48,
        49,
        50,
        51,
        52,
        53,
        54,
        55,
        56,
        57,
        58,
        59,
        60,
        61,
        62,
        63,
        64,
        65,
        66,
        67,
        68,
        69,
        70,
        71,
        72,
        73,
        74,
        75,
        76,
        77,
        78,
        79,
        80,
        81,
        82,
        83,
        84,
        85,
        86,
        87,
        88,
        89,
        90,
        91,
        92,
        93,
        94,
        95,
        96,
        97,
        98,
        99,
        100,
        101,
        102,
        103,
        104,
        105,
        106,
        107,
        108,
        109,
        110,
        111,
        112,
        113,
        114,
        115,
        116,
        117,
        118,
        119,
        120,
        121,
        122,
        123,
        124,
        125,
        126,
        127,
        128,
        129,
        130,
        131,
        132,
        133,
        134,
        135,
        136,
        137,
        138,
        139,
        140,
        141,
        142,
        143,
        144,
        145,
        146,
        147,
        148,
        149,
        150,
        151,
        152,
        153,
        154,
        155,
        156,
        157,
        158,
        159,
        160,
        161,
        162,
        163,
        164,
        165,
        166,
        167,
        168,
        169,
        170,
        171,
        172,
        173,
        174,
        175,
        176,
        177,
        178,
        179,
        180,
        181,
        182,
        183,
        184,
        185,
        186,
        187,
        188,
        189,
        190,
        191,
        192,
        193,
        194,
        195,
        196,
        197,
        198,
        199,
        200,
        201,
        202,
        203,
        204,
        205,
        206,
        207,
        208,
        209,
        210,
        211,
        212,
        213,
        214,
        215,
        216,
        217,
        218,
        219,
        220,
        221,
        222,
        223,
        224,
        225,
        226,
        227,
        228,
        229,
        230,
        231,
        232,
        233,
        234,
        235,
        236
      ],
      "LargestImagePixelValue": [
        663,
        723,
        871,
        677,
        697,
        1059,
        1163,
        957,
        997,
        1128,
        898,
        655,
        984,
        999,
        1030,
        1122,
        1390,
        1037,
        744,
        1190,
        1109,
        702,
        711,
        676,
        967,
        684,
        774,
        658,
        711,
        664,
        696,
        669,
        700,
        676,
        680,
        907,
        900,
        681,
        695,
        1035,
        708,
        678,
        1079,
        968,
        772,
        810,
        957,
        850,
        659,
        659,
        704,
        685,
        699,
        772,
        1036,
        708,
        910,
