{
  "AcquisitionMatrixPE": 96,
  "AcquisitionNumber": 1,
  "AcquisitionTime": "19:15:24.552500",
  "BandwidthPerPixelPhaseEncode": 18.939,
  "BaseResolution": 96,
  "BodyPartExamined": "BRAIN",
  "ConsistencyInfo": "N4_VE11C_LATEST_20160120",
  "ConversionSoftware": "dcm2niix",
  "ConversionSoftwareVersion": "v1.0.20170923 (OpenJPEG build) GCC6.3.0",
  "DerivedVendorReportedEchoSpacing": 0.000550011,
  "DeviceSerialNumber": "66112",
  "DwellTime": 2.2e-06,
  "EchoTime": 0.033,
  "EchoTrainLength": 96,
  "EffectiveEchoSpacing": 0.000550011,
  "FlipAngle": 59,
  "ImageType": [
    "ORIGINAL",
    "PRIMARY",
    "FMRI",
    "NONE",
    "ND",
    "NORM",
    "MOSAIC"
  ],
  "InstitutionAddress": "Maynard_3_Hanover_NH_US_03755",
  "InstitutionName": "Dartmouth_College_-_PBS",
  "MagneticFieldStrength": 3,
  "Manufacturer": "Siemens",
  "ManufacturersModelName": "Prisma",
  "Modality": "MR",
  "MultibandAccelerationFactor": 4,
  "PercentPhaseFOV": 100,
  "PhaseEncodingDirection": "j-",
  "PhaseEncodingSteps": 96,
  "PhaseResolution": 1,
  "ProcedureStepDescription": "Gobbini_Matteo_1038_hyperface",
  "ProtocolName": "func_run-02_task-visualmemory",
  "PulseSequenceDetails": "%SiemensSeq%_ep2d_bold",
  "ReceiveCoilActiveElements": "HEA;HEP",
  "ReceiveCoilName": "Head_32",
  "ReconMatrixPE": 96,
  "RepetitionTime": 1,
  "ScanOptions": "FS",
  "ScanningSequence": "EP",
  "SequenceName": "_epfid2d1_96",
  "SequenceVariant": "SK",
  "SeriesDescription": "func_run-02_task-visualmemory",
  "SliceTiming": [
    0.735,
    0,
    0.49,
    0.08,
    0.57,
    0.1625,
    0.6525,
    0.325,
    0.815,
    0.4075,
    0.8975,
    0.245,
    0.735,
    0,
    0.49,
    0.08,
    0.57,
    0.1625,
    0.6525,
    0.325,
    0.815,
    0.4075,
    0.8975,
    0.245,
    0.735,
    0,
    0.49,
    0.08,
    0.57,
    0.1625,
    0.6525,
    0.325,
    0.815,
    0.4075,
    0.8975,
    0.245,
    0.735,
    0,
    0.49,
    0.08,
    0.57,
    0.1625,
    0.6525,
    0.325,
    0.815,
    0.4075,
    0.8975,
    0.245
  ],
  "SoftwareVersions": "syngo_MR_E11",
  "StationName": "AWP66112",
  "TotalReadoutTime": 0.0522511,
  "dcmmeta_affine": [
    [
      -2.4942104816436768,
      -0.1700383722782135,
      0.0008187742787413299,
      128.72369384765625
    ],
    [
      -0.16999104619026184,
      2.493748426437378,
      0.04819004610180855,
      -98.08399200439453
    ],
    [
      0.004094389732927084,
      -0.04802277311682701,
      2.499535322189331,
      -56.58952713012695
    ],
    [
      0.0,
      0.0,
      0.0,
      1.0
    ]
  ],
  "dcmmeta_reorient_transform": [
    [
      0.0,
      -1.0,
      0.0,
      95.0
    ],
    [
      1.0,
      0.0,
      0.0,
      0.0
    ],
    [
      0.0,
      0.0,
      1.0,
      0.0
    ],
    [
      0.0,
      0.0,
      0.0,
      1.0
    ]
  ],
  "dcmmeta_shape": [
    96,
    96,
    48,
    288
  ],
  "dcmmeta_slice_dim": 2,
  "dcmmeta_version": 0.6,
  "global": {
    "const": {
      "AccessionNumber": "A001142",
      "AcquisitionMatrix": [
        96,
        0,
        0,
        96
      ],
      "AngioFlag": "N",
      "BitsAllocated": 16,
      "BitsStored": 12,
      "BodyPartExamined": "BRAIN",
      "Columns": 672,
      "EchoNumbers": 1,
      "EchoTime": 33.0,
      "EchoTrainLength": 96,
      "FlipAngle": 59.0,
      "HighBit": 11,
      "ImageOrientationPatient": [
        0.9976842210626,
        0.06799641754222,
        0.00163775582428,
        -0.0680153495919,
        0.99749933450194,
        0.01920910950781
      ],
      "ImagePositionPatient": [
        -781.93163220396,
        -905.97903814715,
        -76.161433254686
      ],
      "ImageType": [
        "ORIGINAL",
        "PRIMARY",
        "FMRI",
        "NONE",
        "ND",
        "NORM",
        "MOSAIC"
      ],
      "ImagedNucleus": "1H",
      "ImagingFrequency": 123.252306,
      "InPlanePhaseEncodingDirection": "COL",
      "MRAcquisitionType": "2D",
      "MagneticFieldStrength": 3.0,
      "Manufacturer": "SIEMENS",
      "ManufacturerModelName": "Prisma",
      "Modality": "MR",
      "NumberOfAverages": 1.0,
      "NumberOfPhaseEncodingSteps": 96,
      "PercentPhaseFieldOfView": 100.0,
      "PercentSampling": 100.0,
      "PerformedProcedureStepStartTime": "185927.297000",
      "PhotometricInterpretation": "MONOCHROME2",
      "PixelBandwidth": 2365.0,
      "PixelRepresentation": 0,
      "PixelSpacing": [
        2.5,
        2.5
      ],
      "PositionReferenceIndicator": "",
      "ProtocolName": "func_run-02_task-visualmemory",
      "RepetitionTime": 1000.0,
      "Rows": 672,
      "SAR": 0.05635698738504,
      "SamplesPerPixel": 1,
      "ScanOptions": "FS",
      "ScanningSequence": "EP",
      "SequenceName": "*epfid2d1_96",
      "SequenceVariant": "SK",
      "SeriesDescription": "func_run-02_task-visualmemory",
      "SeriesNumber": 14,
      "SeriesTime": "191525.834000",
      "SliceLocation": -58.427519953596,
      "SliceThickness": 2.5,
      "SmallestImagePixelValue": 0,
      "SoftwareVersions": "syngo MR E11",
      "SpacingBetweenSlices": 2.4999999705777,
      "SpecificCharacterSet": "ISO_IR 100",
      "StudyID": "3",
      "StudyTime": "185927.167000",
      "TransmitCoilName": "Body",
      "VariableFlipAngleFlag": "N",
      "WindowCenterWidthExplanation": "Algo1",
      "dBdt": 0.0
    },
    "slices": {}
  },
  "time": {
    "samples": {
      "AcquisitionNumber": [
        1,
        2,
        3,
        4,
        5,
        6,
        7,
        8,
        9,
        10,
        11,
        12,
        13,
        14,
        15,
        16,
        17,
        18,
        19,
        20,
        21,
        22,
        23,
        24,
        25,
        26,
        27,
        28,
        29,
        30,
        31,
        32,
        33,
        34,
        35,
        36,
        37,
        38,
        39,
        40,
        41,
        42,
        43,
        44,
        45,
        46,
        47,
        48,
        49,
        50,
        51,
        52,
        53,
        54,
        55,
        56,
        57,
        58,
        59,
        60,
        61,
        62,
        63,
        64,
        65,
        66,
        67,
        68,
        69,
        70,
        71,
        72,
        73,
        74,
        75,
        76,
        77,
        78,
        79,
        80,
        81,
        82,
        83,
        84,
        85,
        86,
        87,
        88,
        89,
        90,
        91,
        92,
        93,
        94,
        95,
        96,
        97,
        98,
        99,
        100,
        101,
        102,
        103,
        104,
        105,
        106,
        107,
        108,
        109,
        110,
        111,
        112,
        113,
        114,
        115,
        116,
        117,
        118,
        119,
        120,
        121,
        122,
        123,
        124,
        125,
        126,
        127,
        128,
        129,
        130,
        131,
        132,
        133,
        134,
        135,
        136,
        137,
        138,
        139,
        140,
        141,
        142,
        143,
        144,
        145,
        146,
        147,
        148,
        149,
        150,
        151,
        152,
        153,
        154,
        155,
        156,
        157,
        158,
        159,
        160,
        161,
        162,
        163,
        164,
        165,
        166,
        167,
        168,
        169,
        170,
        171,
        172,
        173,
        174,
        175,
        176,
        177,
        178,
        179,
        180,
        181,
        182,
        183,
        184,
        185,
        186,
        187,
        188,
        189,
        190,
        191,
        192,
        193,
        194,
        195,
        196,
        197,
        198,
        199,
        200,
        201,
        202,
        203,
        204,
        205,
        206,
        207,
        208,
        209,
        210,
        211,
        212,
        213,
        214,
        215,
        216,
        217,
        218,
        219,
        220,
        221,
        222,
        223,
        224,
        225,
        226,
        227,
        228,
        229,
        230,
        231,
        232,
        233,
        234,
        235,
        236,
        237,
        238,
        239,
        240,
        241,
        242,
        243,
        244,
        245,
        246,
        247,
        248,
        249,
        250,
        251,
        252,
        253,
        254,
        255,
        256,
        257,
        258,
        259,
        260,
        261,
        262,
        263,
        264,
        265,
        266,
        267,
        268,
        269,
        270,
        271,
        272,
        273,
        274,
        275,
        276,
        277,
        278,
        279,
        280,
        281,
        282,
        283,
        284,
        285,
        286,
        287,
        288
      ],
      "AcquisitionTime": [
        "191524.552500",
        "191525.552500",
        "191526.552500",
        "191527.552500",
        "191528.552500",
        "191529.552500",
        "191530.552500",
        "191531.552500",
        "191532.552500",
        "191533.552500",
        "191534.552500",
        "191535.552500",
        "191536.552500",
        "191537.552500",
        "191538.552500",
        "191539.552500",
        "191540.552500",
        "191541.552500",
        "191542.552500",
        "191543.552500",
        "191544.552500",
        "191545.552500",
        "191546.552500",
        "191547.552500",
        "191548.552500",
        "191549.552500",
        "191550.552500",
        "191551.552500",
        "191552.552500",
        "191553.552500",
        "191554.552500",
        "191555.552500",
        "191556.552500",
        "191557.552500",
        "191558.552500",
        "191559.552500",
        "191600.552500",
        "191601.552500",
        "191602.552500",
        "191603.552500",
        "191604.552500",
        "191605.552500",
        "191606.552500",
        "191607.552500",
        "191608.552500",
        "191609.552500",
        "191610.552500",
        "191611.552500",
        "191612.552500",
        "191613.552500",
        "191614.552500",
        "191615.552500",
        "191616.552500",
        "191617.552500",
        "191618.552500",
        "191619.552500",
        "191620.552500",
        "191621.552500",
        "191622.552500",
        "191623.552500",
        "191624.552500",
        "191625.552500",
        "191626.552500",
        "191627.552500",
        "191628.552500",
        "191629.552500",
        "191630.552500",
        "191631.552500",
        "191632.552500",
        "191633.552500",
        "191634.552500",
        "191635.552500",
        "191636.552500",
        "191637.552500",
        "191638.552500",
        "191639.552500",
        "191640.552500",
        "191641.552500",
        "191642.552500",
        "191643.552500",
        "191644.552500",
        "191645.552500",
        "191646.552500",
        "191647.552500",
        "191648.552500",
        "191649.552500",
        "191650.552500",
        "191651.552500",
        "191652.552500",
        "191653.552500",
        "191654.552500",
        "191655.552500",
        "191656.552500",
        "191657.552500",
        "191658.552500",
        "191659.552500",
        "191700.552500",
        "191701.552500",
        "191702.552500",
        "191703.552500",
        "191704.552500",
        "191705.552500",
        "191706.552500",
        "191707.552500",
        "191708.552500",
        "191709.552500",
        "191710.552500",
        "191711.552500",
        "191712.552500",
        "191713.552500",
        "191714.552500",
        "191715.552500",
        "191716.552500",
        "191717.552500",
        "191718.552500",
        "191719.552500",
        "191720.552500",
        "191721.552500",
        "191722.552500",
        "191723.552500",
        "191724.552500",
        "191725.552500",
        "191726.552500",
        "191727.552500",
        "191728.552500",
        "191729.552500",
        "191730.552500",
        "191731.552500",
        "191732.552500",
        "191733.552500",
        "191734.552500",
        "191735.552500",
        "191736.552500",
        "191737.552500",
        "191738.552500",
        "191739.552500",
        "191740.552500",
        "191741.552500",
        "191742.552500",
        "191743.552500",
        "191744.552500",
        "191745.552500",
        "191746.552500",
        "191747.552500",
        "191748.552500",
        "191749.552500",
        "191750.552500",
        "191751.552500",
        "191752.552500",
        "191753.552500",
        "191754.552500",
        "191755.552500",
        "191756.552500",
        "191757.552500",
        "191758.552500",
        "191759.552500",
        "191800.552500",
        "191801.552500",
        "191802.552500",
        "191803.552500",
        "191804.552500",
        "191805.552500",
        "191806.552500",
        "191807.552500",
        "191808.552500",
        "191809.552500",
        "191810.552500",
        "191811.552500",
        "191812.552500",
        "191813.552500",
        "191814.552500",
        "191815.552500",
        "191816.552500",
        "191817.552500",
        "191818.552500",
        "191819.552500",
        "191820.552500",
        "191821.552500",
        "191822.552500",
        "191823.552500",
        "191824.552500",
        "191825.552500",
        "191826.552500",
        "191827.552500",
        "191828.552500",
        "191829.552500",
        "191830.552500",
        "191831.552500",
        "191832.552500",
        "191833.552500",
        "191834.552500",
        "191835.552500",
        "191836.552500",
        "191837.552500",
        "191838.552500",
        "191839.552500",
        "191840.552500",
        "191841.552500",
        "191842.552500",
        "191843.552500",
        "191844.552500",
        "191845.552500",
        "191846.552500",
        "191847.552500",
        "191848.552500",
        "191849.552500",
        "191850.552500",
        "191851.552500",
        "191852.552500",
        "191853.552500",
        "191854.552500",
        "191855.552500",
        "191856.552500",
        "191857.552500",
        "191858.552500",
        "191859.552500",
        "191900.552500",
        "191901.552500",
        "191902.552500",
        "191903.552500",
        "191904.552500",
        "191905.552500",
        "191906.552500",
        "191907.552500",
        "191908.552500",
        "191909.552500",
        "191910.552500",
        "191911.552500",
        "191912.552500",
        "191913.552500",
        "191914.552500",
        "191915.552500",
        "191916.552500",
        "191917.552500",
        "191918.552500",
        "191919.552500",
        "191920.552500",
        "191921.552500",
        "191922.552500",
        "191923.552500",
        "191924.552500",
        "191925.552500",
        "191926.552500",
        "191927.552500",
        "191928.552500",
        "191929.552500",
        "191930.552500",
        "191931.552500",
        "191932.552500",
        "191933.552500",
        "191934.552500",
        "191935.552500",
        "191936.552500",
        "191937.552500",
        "191938.552500",
        "191939.552500",
        "191940.552500",
        "191941.552500",
        "191942.552500",
        "191943.552500",
        "191944.552500",
        "191945.552500",
        "191946.552500",
        "191947.552500",
        "191948.552500",
        "191949.552500",
        "191950.552500",
        "191951.552500",
        "191952.552500",
        "191953.552500",
        "191954.552500",
        "191955.552500",
        "191956.552500",
        "191957.552500",
        "191958.552500",
        "191959.552500",
        "192000.552500",
        "192001.552500",
        "192002.552500",
        "192003.552500",
        "192004.552500",
        "192005.552500",
        "192006.552500",
        "192007.552500",
        "192008.552500",
        "192009.552500",
        "192010.552500",
        "192011.552500"
      ],
      "ContentTime": [
        "191525.837000",
        "191526.697000",
        "191527.679000",
        "191528.665000",
        "191529.657000",
        "191530.702000",
        "191531.670000",
        "191532.685000",
        "191533.669000",
        "191534.652000",
        "191535.708000",
        "191536.655000",
        "191537.650000",
        "191538.657000",
        "191539.673000",
        "191540.634000",
        "191541.648000",
        "191542.650000",
        "191543.636000",
        "191544.613000",
        "191545.661000",
        "191546.643000",
        "191547.654000",
        "191548.710000",
        "191549.642000",
        "191550.663000",
        "191551.646000",
        "191552.654000",
        "191553.651000",
        "191554.646000",
        "191555.636000",
        "191556.665000",
        "191557.656000",
        "191558.641000",
        "191559.667000",
        "191600.667000",
        "191601.656000",
        "191602.675000",
        "191603.649000",
        "191604.636000",
        "191605.642000",
        "191606.658000",
        "191607.639000",
        "191608.653000",
        "191609.665000",
        "191610.650000",
        "191611.653000",
        "191612.650000",
        "191613.660000",
        "191614.657000",
        "191615.683000",
        "191616.677000",
        "191617.709000",
        "191618.673000",
        "191619.665000",
        "191620.661000",
        "191621.671000",
        "191622.640000",
        "191623.621000",
        "191624.684000",
        "191625.652000",
        "191626.652000",
        "191627.637000",
        "191628.649000",
        "191629.682000",
        "191630.646000",
        "191631.658000",
        "191632.640000",
        "191633.641000",
        "191634.664000",
        "191635.652000",
        "191636.649000",
        "191637.638000",
        "191638.666000",
        "191639.697000",
        "191640.689000",
        "191641.645000",
        "191642.674000",
        "191643.644000",
        "191644.640000",
        "191645.661000",
        "191646.646000",
        "191647.631000",
        "191648.645000",
        "191649.645000",
        "191650.676000",
        "191651.675000",
        "191652.696000",
        "191653.679000",
        "191654.723000",
        "191655.646000",
        "191656.694000",
        "191657.655000",
        "191658.638000",
        "191659.674000",
        "191700.665000",
        "191701.649000",
        "191702.643000",
        "191703.672000",
        "191704.723000",
        "191705.697000",
        "191706.723000",
        "191707.675000",
        "191708.680000",
        "191709.629000",
        "191710.672000",
        "191711.678000",
        "191712.667000",
        "191713.654000",
        "191714.677000",
        "191715.705000",
        "191716.672000",
        "191717.680000",
        "191718.726000",
        "191719.686000",
        "191720.653000",
        "191721.663000",
        "191722.688000",
        "191723.641000",
        "191724.669000",
        "191725.666000",
        "191726.659000",
        "191727.665000",
        "191728.673000",
        "191729.654000",
        "191730.658000",
        "191731.670000",
        "191732.650000",
        "191733.656000",
        "191734.645000",
        "191735.672000",
        "191736.632000",
        "191737.629000",
        "191738.667000",
        "191739.673000",
        "191740.669000",
        "191741.678000",
        "191742.671000",
        "191743.643000",
        "191744.663000",
        "191745.672000",
        "191746.683000",
        "191747.640000",
        "191748.692000",
        "191749.675000",
        "191750.656000",
        "191751.669000",
        "191752.671000",
        "191753.643000",
        "191754.712000",
        "191755.676000",
        "191756.648000",
        "191757.660000",
        "191758.654000",
        "191759.713000",
        "191800.647000",
        "191801.657000",
        "191802.660000",
        "191803.637000",
        "191804.652000",
        "191805.650000",
        "191806.654000",
        "191807.649000",
        "191808.738000",
        "191809.671000",
        "191810.642000",
        "191811.658000",
        "191812.682000",
        "191813.668000",
        "191814.686000",
        "191815.650000",
        "191816.659000",
        "191817.629000",
        "191818.666000",
        "191819.666000",
        "191820.682000",
        "191821.651000",
        "191822.692000",
        "191823.667000",
        "191824.652000",
        "191825.666000",
        "191826.735000",
        "191827.649000",
        "191828.677000",
        "191829.674000",
        "191830.659000",
        "191831.667000",
        "191832.657000",
        "191833.665000",
        "191834.657000",
        "191835.658000",
        "191836.675000",
        "191837.701000",
        "191838.664000",
        "191839.687000",
        "191840.696000",
        "191841.720000",
        "191842.684000",
        "191843.656000",
        "191844.663000",
        "191845.690000",
        "191846.640000",
        "191847.689000",
        "191848.681000",
        "191849.656000",
        "191850.671000",
        "191851.670000",
        "191852.665000",
        "191853.654000",
        "191854.668000",
        "191855.643000",
        "191856.663000",
        "191857.686000",
        "191858.645000",
        "191859.660000",
        "191900.634000",
        "191901.658000",
        "191902.646000",
        "191903.638000",
        "191904.667000",
        "191905.662000",
        "191906.650000",
        "191907.635000",
        "191908.660000",
        "191909.659000",
        "191910.694000",
        "191911.654000",
        "191912.696000",
        "191913.667000",
        "191914.641000",
        "191915.654000",
        "191916.626000",
        "191917.651000",
        "191918.676000",
        "191919.673000",
        "191920.653000",
        "191921.650000",
        "191922.661000",
        "191923.669000",
        "191924.660000",
        "191925.659000",
        "191926.644000",
        "191927.674000",
        "191928.648000",
        "191929.653000",
        "191930.671000",
        "191931.661000",
        "191932.637000",
        "191933.652000",
        "191934.674000",
        "191935.666000",
        "191936.665000",
        "191937.659000",
        "191938.668000",
        "191939.673000",
        "191940.682000",
        "191941.665000",
        "191942.676000",
        "191943.656000",
        "191944.659000",
        "191945.662000",
        "191946.702000",
        "191947.673000",
        "191948.647000",
        "191949.625000",
        "191950.642000",
        "191951.637000",
        "191952.657000",
        "191953.645000",
        "191954.645000",
        "191955.659000",
        "191956.651000",
        "191957.637000",
        "191958.668000",
        "191959.655000",
        "192000.666000",
        "192001.654000",
        "192002.654000",
        "192003.666000",
        "192004.650000",
        "192005.643000",
        "192006.660000",
        "192007.646000",
        "192008.659000",
        "192009.712000",
        "192010.667000",
        "192011.691000",
        "192012.710000"
      ],
      "InstanceCreationTime": [
        "191525.837000",
        "191526.697000",
        "191527.679000",
        "191528.665000",
        "191529.657000",
        "191530.702000",
        "191531.670000",
        "191532.685000",
        "191533.669000",
        "191534.652000",
        "191535.708000",
        "191536.655000",
        "191537.650000",
        "191538.657000",
        "191539.673000",
        "191540.634000",
        "191541.648000",
        "191542.650000",
        "191543.636000",
        "191544.613000",
        "191545.661000",
        "191546.643000",
        "191547.654000",
        "191548.710000",
        "191549.642000",
        "191550.663000",
        "191551.646000",
        "191552.654000",
        "191553.651000",
        "191554.646000",
        "191555.636000",
        "191556.665000",
        "191557.656000",
        "191558.641000",
        "191559.667000",
        "191600.667000",
        "191601.656000",
        "191602.675000",
        "191603.649000",
        "191604.636000",
        "191605.642000",
        "191606.658000",
        "191607.639000",
        "191608.653000",
        "191609.665000",
        "191610.650000",
        "191611.653000",
        "191612.650000",
        "191613.660000",
        "191614.657000",
        "191615.683000",
        "191616.677000",
        "191617.709000",
        "191618.673000",
        "191619.665000",
        "191620.661000",
        "191621.671000",
        "191622.640000",
        "191623.621000",
        "191624.684000",
        "191625.652000",
        "191626.652000",
        "191627.637000",
        "191628.649000",
        "191629.682000",
        "191630.646000",
        "191631.658000",
        "191632.640000",
        "191633.641000",
        "191634.664000",
        "191635.652000",
        "191636.649000",
        "191637.638000",
        "191638.666000",
        "191639.697000",
        "191640.689000",
        "191641.645000",
        "191642.674000",
        "191643.644000",
        "191644.640000",
        "191645.661000",
        "191646.646000",
        "191647.631000",
        "191648.645000",
        "191649.645000",
        "191650.676000",
        "191651.675000",
        "191652.696000",
        "191653.679000",
        "191654.723000",
        "191655.646000",
        "191656.694000",
        "191657.655000",
        "191658.638000",
        "191659.674000",
        "191700.665000",
        "191701.649000",
        "191702.643000",
        "191703.672000",
        "191704.723000",
        "191705.697000",
        "191706.723000",
        "191707.675000",
        "191708.680000",
        "191709.629000",
        "191710.672000",
        "191711.678000",
        "191712.667000",
        "191713.654000",
        "191714.677000",
        "191715.705000",
        "191716.672000",
        "191717.680000",
        "191718.726000",
        "191719.686000",
        "191720.653000",
        "191721.663000",
        "191722.688000",
        "191723.641000",
        "191724.669000",
        "191725.666000",
        "191726.659000",
        "191727.665000",
        "191728.673000",
        "191729.654000",
        "191730.658000",
        "191731.670000",
        "191732.650000",
        "191733.656000",
        "191734.645000",
        "191735.672000",
        "191736.632000",
        "191737.629000",
        "191738.667000",
        "191739.673000",
        "191740.669000",
        "191741.678000",
        "191742.671000",
        "191743.643000",
        "191744.663000",
        "191745.672000",
        "191746.683000",
        "191747.640000",
        "191748.692000",
        "191749.675000",
        "191750.656000",
        "191751.669000",
        "191752.671000",
        "191753.643000",
        "191754.712000",
        "191755.676000",
        "191756.648000",
        "191757.660000",
        "191758.654000",
        "191759.713000",
        "191800.647000",
        "191801.657000",
        "191802.660000",
        "191803.637000",
        "191804.652000",
        "191805.650000",
        "191806.654000",
        "191807.649000",
        "191808.738000",
        "191809.671000",
        "191810.642000",
        "191811.658000",
        "191812.682000",
        "191813.668000",
        "191814.686000",
        "191815.650000",
        "191816.659000",
        "191817.629000",
        "191818.666000",
        "191819.666000",
        "191820.682000",
        "191821.651000",
        "191822.692000",
        "191823.667000",
        "191824.652000",
        "191825.666000",
        "191826.735000",
        "191827.649000",
        "191828.677000",
        "191829.674000",
        "191830.659000",
        "191831.667000",
        "191832.657000",
        "191833.665000",
        "191834.657000",
        "191835.658000",
        "191836.675000",
        "191837.701000",
        "191838.664000",
        "191839.687000",
        "191840.696000",
        "191841.720000",
        "191842.684000",
        "191843.656000",
        "191844.663000",
        "191845.690000",
        "191846.640000",
        "191847.689000",
        "191848.681000",
        "191849.656000",
        "191850.671000",
        "191851.670000",
        "191852.665000",
        "191853.654000",
        "191854.668000",
        "191855.643000",
        "191856.663000",
        "191857.686000",
        "191858.645000",
        "191859.660000",
        "191900.634000",
        "191901.658000",
        "191902.646000",
        "191903.638000",
        "191904.667000",
        "191905.662000",
        "191906.650000",
        "191907.635000",
        "191908.660000",
        "191909.659000",
        "191910.694000",
        "191911.654000",
        "191912.696000",
        "191913.667000",
        "191914.641000",
        "191915.654000",
        "191916.626000",
        "191917.651000",
        "191918.676000",
        "191919.673000",
        "191920.653000",
        "191921.650000",
        "191922.661000",
        "191923.669000",
        "191924.660000",
        "191925.659000",
        "191926.644000",
        "191927.674000",
        "191928.648000",
        "191929.653000",
        "191930.671000",
        "191931.661000",
        "191932.637000",
        "191933.652000",
        "191934.674000",
        "191935.666000",
        "191936.665000",
        "191937.659000",
        "191938.668000",
        "191939.673000",
        "191940.682000",
