{
  "AcquisitionMatrixPE": 96,
  "AcquisitionNumber": 1,
  "AcquisitionTime": "19:47:58.815000",
  "BandwidthPerPixelPhaseEncode": 18.939,
  "BaseResolution": 96,
  "BodyPartExamined": "BRAIN",
  "ConsistencyInfo": "N4_VE11C_LATEST_20160120",
  "ConversionSoftware": "dcm2niix",
  "ConversionSoftwareVersion": "v1.0.20170923 (OpenJPEG build) GCC6.3.0",
  "DerivedVendorReportedEchoSpacing": 0.000550011,
  "DeviceSerialNumber": "66112",
  "DwellTime": 2.2e-06,
  "EchoTime": 0.033,
  "EchoTrainLength": 96,
  "EffectiveEchoSpacing": 0.000550011,
  "FlipAngle": 59,
  "ImageType": [
    "ORIGINAL",
    "PRIMARY",
    "FMRI",
    "NONE",
    "ND",
    "NORM",
    "MOSAIC"
  ],
  "InstitutionAddress": "Maynard_3_Hanover_NH_US_03755",
  "InstitutionName": "Dartmouth_College_-_PBS",
  "MagneticFieldStrength": 3,
  "Manufacturer": "Siemens",
  "ManufacturersModelName": "Prisma",
  "Modality": "MR",
  "MultibandAccelerationFactor": 4,
  "PercentPhaseFOV": 100,
  "PhaseEncodingDirection": "j-",
  "PhaseEncodingSteps": 96,
  "PhaseResolution": 1,
  "ProcedureStepDescription": "Gobbini_Matteo_1038_hyperface",
  "ProtocolName": "func_run-08_task-visualmemory",
  "PulseSequenceDetails": "%SiemensSeq%_ep2d_bold",
  "ReceiveCoilActiveElements": "HEA;HEP",
  "ReceiveCoilName": "Head_32",
  "ReconMatrixPE": 96,
  "RepetitionTime": 1,
  "ScanOptions": "FS",
  "ScanningSequence": "EP",
  "SequenceName": "_epfid2d1_96",
  "SequenceVariant": "SK",
  "SeriesDescription": "func_run-08_task-visualmemory",
  "SliceTiming": [
    0.7325,
    0,
    0.4875,
    0.08,
    0.57,
    0.1625,
    0.6525,
    0.325,
    0.815,
    0.4075,
    0.8975,
    0.245,
    0.7325,
    0,
    0.4875,
    0.08,
    0.57,
    0.1625,
    0.6525,
    0.325,
    0.815,
    0.4075,
    0.8975,
    0.245,
    0.7325,
    0,
    0.4875,
    0.08,
    0.57,
    0.1625,
    0.6525,
    0.325,
    0.815,
    0.4075,
    0.8975,
    0.245,
    0.7325,
    0,
    0.4875,
    0.08,
    0.57,
    0.1625,
    0.6525,
    0.325,
    0.815,
    0.4075,
    0.8975,
    0.245
  ],
  "SoftwareVersions": "syngo_MR_E11",
  "StationName": "AWP66112",
  "TotalReadoutTime": 0.0522511,
  "dcmmeta_affine": [
    [
      -2.4942104816436768,
      -0.1700383722782135,
      0.0008187742787413299,
      128.72369384765625
    ],
    [
      -0.16999104619026184,
      2.493748426437378,
      0.04819004610180855,
      -98.08399200439453
    ],
    [
      0.004094389732927084,
      -0.04802277311682701,
      2.499535322189331,
      -56.58952713012695
    ],
    [
      0.0,
      0.0,
      0.0,
      1.0
    ]
  ],
  "dcmmeta_reorient_transform": [
    [
      0.0,
      -1.0,
      0.0,
      95.0
    ],
    [
      1.0,
      0.0,
      0.0,
      0.0
    ],
    [
      0.0,
      0.0,
      1.0,
      0.0
    ],
    [
      0.0,
      0.0,
      0.0,
      1.0
    ]
  ],
  "dcmmeta_shape": [
    96,
    96,
    48,
    288
  ],
  "dcmmeta_slice_dim": 2,
  "dcmmeta_version": 0.6,
  "global": {
    "const": {
      "AccessionNumber": "A001142",
      "AcquisitionMatrix": [
        96,
        0,
        0,
        96
      ],
      "AngioFlag": "N",
      "BitsAllocated": 16,
      "BitsStored": 12,
      "BodyPartExamined": "BRAIN",
      "Columns": 672,
      "EchoNumbers": 1,
      "EchoTime": 33.0,
      "EchoTrainLength": 96,
      "FlipAngle": 59.0,
      "HighBit": 11,
      "ImageOrientationPatient": [
        0.9976842210626,
        0.06799641754222,
        0.00163775582428,
        -0.0680153495919,
        0.99749933450194,
        0.01920910950781
      ],
      "ImagePositionPatient": [
        -781.93163220396,
        -905.97903814715,
        -76.161433254686
      ],
      "ImageType": [
        "ORIGINAL",
        "PRIMARY",
        "FMRI",
        "NONE",
        "ND",
        "NORM",
        "MOSAIC"
      ],
      "ImagedNucleus": "1H",
      "ImagingFrequency": 123.252311,
      "InPlanePhaseEncodingDirection": "COL",
      "MRAcquisitionType": "2D",
      "MagneticFieldStrength": 3.0,
      "Manufacturer": "SIEMENS",
      "ManufacturerModelName": "Prisma",
      "Modality": "MR",
      "NumberOfAverages": 1.0,
      "NumberOfPhaseEncodingSteps": 96,
      "PercentPhaseFieldOfView": 100.0,
      "PercentSampling": 100.0,
      "PerformedProcedureStepStartTime": "185927.297000",
      "PhotometricInterpretation": "MONOCHROME2",
      "PixelBandwidth": 2365.0,
      "PixelRepresentation": 0,
      "PixelSpacing": [
        2.5,
        2.5
      ],
      "PositionReferenceIndicator": "",
      "ProtocolName": "func_run-08_task-visualmemory",
      "RepetitionTime": 1000.0,
      "Rows": 672,
      "SAR": 0.05635698738504,
      "SamplesPerPixel": 1,
      "ScanOptions": "FS",
      "ScanningSequence": "EP",
      "SequenceName": "*epfid2d1_96",
      "SequenceVariant": "SK",
      "SeriesDescription": "func_run-08_task-visualmemory",
      "SeriesNumber": 56,
      "SeriesTime": "194800.121000",
      "SliceLocation": -58.427519953596,
      "SliceThickness": 2.5,
      "SmallestImagePixelValue": 0,
      "SoftwareVersions": "syngo MR E11",
      "SpacingBetweenSlices": 2.4999999705777,
      "SpecificCharacterSet": "ISO_IR 100",
      "StudyID": "3",
      "StudyTime": "185927.167000",
      "TransmitCoilName": "Body",
      "VariableFlipAngleFlag": "N",
      "WindowCenterWidthExplanation": "Algo1",
      "dBdt": 0.0
    },
    "slices": {}
  },
  "time": {
    "samples": {
      "AcquisitionNumber": [
        1,
        2,
        3,
        4,
        5,
        6,
        7,
        8,
        9,
        10,
        11,
        12,
        13,
        14,
        15,
        16,
        17,
        18,
        19,
        20,
        21,
        22,
        23,
        24,
        25,
        26,
        27,
        28,
        29,
        30,
        31,
        32,
        33,
        34,
        35,
        36,
        37,
        38,
        39,
        40,
        41,
        42,
        43,
        44,
        45,
        46,
        47,
        48,
        49,
        50,
        51,
        52,
        53,
        54,
        55,
        56,
        57,
        58,
        59,
        60,
        61,
        62,
        63,
        64,
        65,
        66,
        67,
        68,
        69,
        70,
        71,
        72,
        73,
        74,
        75,
        76,
        77,
        78,
        79,
        80,
        81,
        82,
        83,
        84,
        85,
        86,
        87,
        88,
        89,
        90,
        91,
        92,
        93,
        94,
        95,
        96,
        97,
        98,
        99,
        100,
        101,
        102,
        103,
        104,
        105,
        106,
        107,
        108,
        109,
        110,
        111,
        112,
        113,
        114,
        115,
        116,
        117,
        118,
        119,
        120,
        121,
        122,
        123,
        124,
        125,
        126,
        127,
        128,
        129,
        130,
        131,
        132,
        133,
        134,
        135,
        136,
        137,
        138,
        139,
        140,
        141,
        142,
        143,
        144,
        145,
        146,
        147,
        148,
        149,
        150,
        151,
        152,
        153,
        154,
        155,
        156,
        157,
        158,
        159,
        160,
        161,
        162,
        163,
        164,
        165,
        166,
        167,
        168,
        169,
        170,
        171,
        172,
        173,
        174,
        175,
        176,
        177,
        178,
        179,
        180,
        181,
        182,
        183,
        184,
        185,
        186,
        187,
        188,
        189,
        190,
        191,
        192,
        193,
        194,
        195,
        196,
        197,
        198,
        199,
        200,
        201,
        202,
        203,
        204,
        205,
        206,
        207,
        208,
        209,
        210,
        211,
        212,
        213,
        214,
        215,
        216,
        217,
        218,
        219,
        220,
        221,
        222,
        223,
        224,
        225,
        226,
        227,
        228,
        229,
        230,
        231,
        232,
        233,
        234,
        235,
        236,
        237,
        238,
        239,
        240,
        241,
        242,
        243,
        244,
        245,
        246,
        247,
        248,
        249,
        250,
        251,
        252,
        253,
        254,
        255,
        256,
        257,
        258,
        259,
        260,
        261,
        262,
        263,
        264,
        265,
        266,
        267,
        268,
        269,
        270,
        271,
        272,
        273,
        274,
        275,
        276,
        277,
        278,
        279,
        280,
        281,
        282,
        283,
        284,
        285,
        286,
        287,
        288
      ],
      "AcquisitionTime": [
        "194758.815000",
        "194759.815000",
        "194800.815000",
        "194801.815000",
        "194802.815000",
        "194803.815000",
        "194804.815000",
        "194805.815000",
        "194806.815000",
        "194807.815000",
        "194808.815000",
        "194809.815000",
        "194810.815000",
        "194811.815000",
        "194812.815000",
        "194813.815000",
        "194814.815000",
        "194815.815000",
        "194816.815000",
        "194817.815000",
        "194818.815000",
        "194819.815000",
        "194820.815000",
        "194821.815000",
        "194822.815000",
        "194823.815000",
        "194824.815000",
        "194825.815000",
        "194826.815000",
        "194827.815000",
        "194828.815000",
        "194829.815000",
        "194830.815000",
        "194831.815000",
        "194832.815000",
        "194833.815000",
        "194834.815000",
        "194835.815000",
        "194836.815000",
        "194837.815000",
        "194838.815000",
        "194839.815000",
        "194840.815000",
        "194841.815000",
        "194842.815000",
        "194843.815000",
        "194844.815000",
        "194845.815000",
        "194846.815000",
        "194847.815000",
        "194848.815000",
        "194849.815000",
        "194850.815000",
        "194851.815000",
        "194852.815000",
        "194853.815000",
        "194854.815000",
        "194855.815000",
        "194856.815000",
        "194857.815000",
        "194858.815000",
        "194859.815000",
        "194900.815000",
        "194901.815000",
        "194902.815000",
        "194903.815000",
        "194904.815000",
        "194905.815000",
        "194906.815000",
        "194907.815000",
        "194908.815000",
        "194909.815000",
        "194910.815000",
        "194911.815000",
        "194912.815000",
        "194913.815000",
        "194914.815000",
        "194915.815000",
        "194916.815000",
        "194917.815000",
        "194918.815000",
        "194919.815000",
        "194920.815000",
        "194921.815000",
        "194922.815000",
        "194923.815000",
        "194924.815000",
        "194925.815000",
        "194926.815000",
        "194927.815000",
        "194928.815000",
        "194929.815000",
        "194930.815000",
        "194931.815000",
        "194932.815000",
        "194933.815000",
        "194934.815000",
        "194935.815000",
        "194936.815000",
        "194937.815000",
        "194938.815000",
        "194939.815000",
        "194940.815000",
        "194941.815000",
        "194942.815000",
        "194943.815000",
        "194944.815000",
        "194945.815000",
        "194946.815000",
        "194947.815000",
        "194948.815000",
        "194949.815000",
        "194950.815000",
        "194951.815000",
        "194952.815000",
        "194953.815000",
        "194954.815000",
        "194955.815000",
        "194956.815000",
        "194957.815000",
        "194958.815000",
        "194959.815000",
        "195000.815000",
        "195001.815000",
        "195002.815000",
        "195003.815000",
        "195004.815000",
        "195005.815000",
        "195006.815000",
        "195007.815000",
        "195008.815000",
        "195009.815000",
        "195010.815000",
        "195011.815000",
        "195012.815000",
        "195013.815000",
        "195014.815000",
        "195015.815000",
        "195016.815000",
        "195017.815000",
        "195018.815000",
        "195019.815000",
        "195020.815000",
        "195021.815000",
        "195022.815000",
        "195023.815000",
        "195024.815000",
        "195025.815000",
        "195026.815000",
        "195027.815000",
        "195028.815000",
        "195029.815000",
        "195030.815000",
        "195031.815000",
        "195032.815000",
        "195033.815000",
        "195034.815000",
        "195035.815000",
        "195036.815000",
        "195037.815000",
        "195038.815000",
        "195039.815000",
        "195040.815000",
        "195041.815000",
        "195042.815000",
        "195043.815000",
        "195044.815000",
        "195045.815000",
        "195046.815000",
        "195047.815000",
        "195048.815000",
        "195049.815000",
        "195050.815000",
        "195051.815000",
        "195052.815000",
        "195053.815000",
        "195054.815000",
        "195055.815000",
        "195056.815000",
        "195057.815000",
        "195058.815000",
        "195059.815000",
        "195100.815000",
        "195101.815000",
        "195102.815000",
        "195103.815000",
        "195104.815000",
        "195105.815000",
        "195106.815000",
        "195107.815000",
        "195108.815000",
        "195109.815000",
        "195110.815000",
        "195111.815000",
        "195112.815000",
        "195113.815000",
        "195114.815000",
        "195115.815000",
        "195116.815000",
        "195117.815000",
        "195118.815000",
        "195119.815000",
        "195120.815000",
        "195121.815000",
        "195122.815000",
        "195123.815000",
        "195124.815000",
        "195125.815000",
        "195126.815000",
        "195127.815000",
        "195128.815000",
        "195129.815000",
        "195130.815000",
        "195131.815000",
        "195132.815000",
        "195133.815000",
        "195134.815000",
        "195135.815000",
        "195136.815000",
        "195137.815000",
        "195138.815000",
        "195139.815000",
        "195140.815000",
        "195141.815000",
        "195142.815000",
        "195143.815000",
        "195144.815000",
        "195145.815000",
        "195146.815000",
        "195147.815000",
        "195148.815000",
        "195149.815000",
        "195150.815000",
        "195151.815000",
        "195152.815000",
        "195153.815000",
        "195154.815000",
        "195155.815000",
        "195156.815000",
        "195157.815000",
        "195158.815000",
        "195159.815000",
        "195200.815000",
        "195201.815000",
        "195202.815000",
        "195203.815000",
        "195204.815000",
        "195205.815000",
        "195206.815000",
        "195207.815000",
        "195208.815000",
        "195209.815000",
        "195210.815000",
        "195211.815000",
        "195212.815000",
        "195213.815000",
        "195214.815000",
        "195215.815000",
        "195216.815000",
        "195217.815000",
        "195218.815000",
        "195219.815000",
        "195220.815000",
        "195221.815000",
        "195222.815000",
        "195223.815000",
        "195224.815000",
        "195225.815000",
        "195226.815000",
        "195227.815000",
        "195228.815000",
        "195229.815000",
        "195230.815000",
        "195231.815000",
        "195232.815000",
        "195233.815000",
        "195234.815000",
        "195235.815000",
        "195236.815000",
        "195237.815000",
        "195238.815000",
        "195239.815000",
        "195240.815000",
        "195241.815000",
        "195242.815000",
        "195243.815000",
        "195244.815000",
        "195245.815000"
      ],
      "ContentTime": [
        "194800.125000",
        "194800.993000",
        "194801.983000",
        "194802.969000",
        "194803.973000",
        "194804.963000",
        "194805.983000",
        "194806.985000",
        "194807.979000",
        "194808.984000",
        "194809.973000",
        "194810.950000",
        "194811.954000",
        "194812.987000",
        "194813.987000",
        "194815.002000",
        "194815.979000",
        "194816.958000",
        "194817.977000",
        "194818.969000",
        "194819.947000",
        "194821.001000",
        "194821.966000",
        "194822.961000",
        "194823.969000",
        "194824.967000",
        "194825.963000",
        "194826.983000",
        "194827.952000",
        "194828.951000",
        "194829.971000",
        "194831.019000",
        "194831.988000",
        "194832.979000",
        "194834.063000",
        "194834.952000",
        "194835.964000",
        "194836.972000",
        "194837.978000",
        "194838.953000",
        "194839.962000",
        "194840.956000",
        "194841.963000",
        "194842.978000",
        "194843.958000",
        "194844.970000",
        "194845.968000",
        "194846.952000",
        "194847.950000",
        "194848.962000",
        "194849.974000",
        "194850.963000",
        "194851.993000",
        "194852.979000",
        "194853.973000",
        "194854.971000",
        "194856.021000",
        "194856.977000",
        "194857.986000",
        "194858.998000",
        "194859.980000",
        "194900.966000",
        "194902.001000",
        "194902.989000",
        "194903.979000",
        "194904.967000",
        "194905.990000",
        "194906.957000",
        "194907.973000",
        "194908.956000",
        "194909.974000",
        "194910.959000",
        "194911.977000",
        "194913.012000",
        "194913.956000",
        "194914.946000",
        "194915.954000",
        "194916.947000",
        "194917.951000",
        "194918.971000",
        "194920.012000",
        "194920.989000",
        "194921.959000",
        "194922.984000",
        "194923.964000",
        "194924.969000",
        "194925.958000",
        "194926.960000",
        "194927.976000",
        "194928.951000",
        "194929.948000",
        "194930.965000",
        "194931.963000",
        "194932.948000",
        "194933.940000",
        "194934.967000",
        "194935.967000",
        "194936.996000",
        "194938.022000",
        "194938.932000",
        "194939.949000",
        "194940.989000",
        "194941.982000",
        "194942.985000",
        "194943.982000",
        "194944.989000",
        "194946.048000",
        "194947.001000",
        "194948.015000",
        "194948.983000",
        "194949.977000",
        "194951.006000",
        "194952.017000",
        "194952.994000",
        "194953.985000",
        "194954.982000",
        "194955.961000",
        "194956.997000",
        "194957.965000",
        "194959.016000",
        "194959.996000",
        "195000.991000",
        "195002.054000",
        "195002.995000",
        "195003.973000",
        "195004.987000",
        "195005.988000",
        "195006.965000",
        "195007.996000",
        "195008.980000",
        "195009.945000",
        "195010.963000",
        "195011.962000",
        "195012.981000",
        "195013.976000",
        "195014.966000",
        "195015.976000",
        "195016.965000",
        "195017.983000",
        "195018.967000",
        "195019.970000",
        "195020.961000",
        "195021.979000",
        "195022.968000",
        "195023.955000",
        "195024.950000",
        "195025.986000",
        "195026.928000",
        "195027.974000",
        "195028.984000",
        "195029.971000",
        "195030.986000",
        "195031.961000",
        "195032.951000",
        "195033.970000",
        "195035.016000",
        "195035.955000",
        "195036.993000",
        "195037.976000",
        "195038.985000",
        "195039.959000",
        "195040.964000",
        "195041.956000",
        "195042.965000",
        "195043.969000",
        "195044.951000",
        "195045.961000",
        "195046.967000",
        "195047.958000",
        "195048.964000",
        "195050.063000",
        "195051.012000",
        "195052.006000",
        "195052.972000",
        "195053.975000",
        "195054.964000",
        "195055.961000",
        "195056.980000",
        "195057.951000",
        "195058.990000",
        "195059.938000",
        "195100.943000",
        "195101.951000",
        "195103.008000",
        "195103.952000",
        "195104.969000",
        "195105.980000",
        "195106.986000",
        "195107.973000",
        "195108.964000",
        "195109.981000",
        "195110.981000",
        "195111.982000",
        "195113.016000",
        "195113.987000",
        "195114.975000",
        "195116.010000",
        "195117.010000",
        "195117.967000",
        "195118.976000",
        "195120.012000",
        "195120.991000",
        "195121.985000",
        "195123.001000",
        "195123.965000",
        "195124.979000",
        "195125.957000",
        "195126.994000",
        "195127.941000",
        "195128.976000",
        "195129.970000",
        "195131.007000",
        "195132.000000",
        "195132.983000",
        "195134.045000",
        "195135.008000",
        "195135.969000",
        "195136.983000",
        "195137.973000",
        "195138.969000",
        "195139.952000",
        "195140.976000",
        "195141.972000",
        "195142.988000",
        "195144.004000",
        "195144.967000",
        "195145.982000",
        "195146.998000",
        "195147.941000",
        "195148.969000",
        "195149.976000",
        "195150.967000",
        "195151.977000",
        "195152.982000",
        "195154.022000",
        "195154.971000",
        "195155.958000",
        "195156.990000",
        "195157.974000",
        "195158.963000",
        "195200.003000",
        "195200.970000",
        "195201.965000",
        "195202.975000",
        "195203.988000",
        "195204.963000",
        "195205.968000",
        "195207.023000",
        "195208.007000",
        "195209.021000",
        "195209.993000",
        "195210.942000",
        "195211.989000",
        "195212.968000",
        "195214.007000",
        "195214.968000",
        "195215.979000",
        "195216.947000",
        "195217.971000",
        "195218.972000",
        "195219.959000",
        "195220.962000",
        "195221.967000",
        "195222.951000",
        "195223.969000",
        "195224.954000",
        "195225.965000",
        "195226.973000",
        "195227.992000",
        "195228.981000",
        "195229.972000",
        "195230.939000",
        "195231.981000",
        "195232.991000",
        "195233.979000",
        "195234.974000",
        "195235.964000",
        "195236.985000",
        "195237.976000",
        "195238.982000",
        "195239.988000",
        "195240.962000",
        "195241.975000",
        "195242.966000",
        "195243.975000",
        "195244.975000",
        "195245.959000",
        "195246.993000"
      ],
      "InstanceCreationTime": [
        "194800.125000",
        "194800.993000",
        "194801.983000",
        "194802.969000",
        "194803.973000",
        "194804.963000",
        "194805.983000",
        "194806.985000",
        "194807.979000",
        "194808.984000",
        "194809.973000",
        "194810.950000",
        "194811.954000",
        "194812.987000",
        "194813.987000",
        "194815.002000",
        "194815.979000",
        "194816.958000",
        "194817.977000",
        "194818.969000",
        "194819.947000",
        "194821.001000",
        "194821.966000",
        "194822.961000",
        "194823.969000",
        "194824.967000",
        "194825.963000",
        "194826.983000",
        "194827.952000",
        "194828.951000",
        "194829.971000",
        "194831.019000",
        "194831.988000",
        "194832.979000",
        "194834.063000",
        "194834.952000",
        "194835.964000",
        "194836.972000",
        "194837.978000",
        "194838.953000",
        "194839.962000",
        "194840.956000",
        "194841.963000",
        "194842.978000",
        "194843.958000",
        "194844.970000",
        "194845.968000",
        "194846.952000",
        "194847.950000",
        "194848.962000",
        "194849.974000",
        "194850.963000",
        "194851.993000",
        "194852.979000",
        "194853.973000",
        "194854.971000",
        "194856.021000",
        "194856.977000",
        "194857.986000",
        "194858.998000",
        "194859.980000",
        "194900.966000",
        "194902.001000",
        "194902.989000",
        "194903.979000",
        "194904.967000",
        "194905.990000",
        "194906.957000",
        "194907.973000",
        "194908.956000",
        "194909.974000",
        "194910.959000",
        "194911.977000",
        "194913.012000",
        "194913.956000",
        "194914.946000",
        "194915.954000",
        "194916.947000",
        "194917.951000",
        "194918.971000",
        "194920.012000",
        "194920.989000",
        "194921.959000",
        "194922.984000",
        "194923.964000",
        "194924.969000",
        "194925.958000",
        "194926.960000",
        "194927.976000",
        "194928.951000",
        "194929.948000",
        "194930.965000",
        "194931.963000",
        "194932.948000",
        "194933.940000",
        "194934.967000",
        "194935.967000",
        "194936.996000",
        "194938.022000",
        "194938.932000",
        "194939.949000",
        "194940.989000",
        "194941.982000",
        "194942.985000",
        "194943.982000",
        "194944.989000",
        "194946.048000",
        "194947.001000",
        "194948.015000",
        "194948.983000",
        "194949.977000",
        "194951.006000",
        "194952.017000",
        "194952.994000",
        "194953.985000",
        "194954.982000",
        "194955.961000",
        "194956.997000",
        "194957.965000",
        "194959.016000",
        "194959.996000",
        "195000.991000",
        "195002.054000",
        "195002.995000",
        "195003.973000",
        "195004.987000",
        "195005.988000",
        "195006.965000",
        "195007.996000",
        "195008.980000",
        "195009.945000",
        "195010.963000",
        "195011.962000",
        "195012.981000",
        "195013.976000",
        "195014.966000",
        "195015.976000",
        "195016.965000",
        "195017.983000",
        "195018.967000",
        "195019.970000",
        "195020.961000",
        "195021.979000",
        "195022.968000",
        "195023.955000",
        "195024.950000",
        "195025.986000",
        "195026.928000",
        "195027.974000",
        "195028.984000",
        "195029.971000",
        "195030.986000",
        "195031.961000",
        "195032.951000",
        "195033.970000",
        "195035.016000",
        "195035.955000",
        "195036.993000",
        "195037.976000",
        "195038.985000",
        "195039.959000",
        "195040.964000",
        "195041.956000",
        "195042.965000",
        "195043.969000",
        "195044.951000",
        "195045.961000",
        "195046.967000",
        "195047.958000",
        "195048.964000",
        "195050.063000",
        "195051.012000",
        "195052.006000",
        "195052.972000",
        "195053.975000",
        "195054.964000",
        "195055.961000",
        "195056.980000",
        "195057.951000",
        "195058.990000",
        "195059.938000",
        "195100.943000",
        "195101.951000",
        "195103.008000",
        "195103.952000",
        "195104.969000",
        "195105.980000",
        "195106.986000",
        "195107.973000",
        "195108.964000",
        "195109.981000",
        "195110.981000",
        "195111.982000",
        "195113.016000",
        "195113.987000",
        "195114.975000",
        "195116.010000",
        "195117.010000",
        "195117.967000",
        "195118.976000",
        "195120.012000",
        "195120.991000",
        "195121.985000",
        "195123.001000",
        "195123.965000",
        "195124.979000",
        "195125.957000",
        "195126.994000",
        "195127.941000",
        "195128.976000",
        "195129.970000",
        "195131.007000",
        "195132.000000",
        "195132.983000",
        "195134.045000",
        "195135.008000",
        "195135.969000",
        "195136.983000",
        "195137.973000",
        "195138.969000",
        "195139.952000",
        "195140.976000",
        "195141.972000",
        "195142.988000",
        "195144.004000",
        "195144.967000",
        "195145.982000",
        "195146.998000",
        "195147.941000",
        "195148.969000",
        "195149.976000",
        "195150.967000",
        "195151.977000",
        "195152.982000",
        "195154.022000",
        "195154.971000",
        "195155.958000",
        "195156.990000",
        "195157.974000",
        "195158.963000",
        "195200.003000",
        "195200.970000",
        "195201.965000",
        "195202.975000",
        "195203.988000",
        "195204.963000",
        "195205.968000",
        "195207.023000",
        "195208.007000",
        "195209.021000",
        "195209.993000",
        "195210.942000",
        "195211.989000",
        "195212.968000",
        "195214.007000",
