{
  "AcquisitionMatrixPE": 96,
  "AcquisitionNumber": 1,
  "AcquisitionTime": "15:18:9.832500",
  "BandwidthPerPixelPhaseEncode": 18.939,
  "BaseResolution": 96,
  "BodyPartExamined": "BRAIN",
  "ConsistencyInfo": "N4_VE11C_LATEST_20160120",
  "ConversionSoftware": "dcm2niix",
  "ConversionSoftwareVersion": "v1.0.20171215 (OpenJPEG build) GCC6.3.0",
  "DerivedVendorReportedEchoSpacing": 0.000550011,
  "DeviceSerialNumber": "66112",
  "DwellTime": 2.2e-06,
  "EchoTime": 0.033,
  "EchoTrainLength": 96,
  "EffectiveEchoSpacing": 0.000550011,
  "FlipAngle": 59,
  "ImageOrientationPatientDICOM": [0.99927, 0.0317019, -0.0213091, -0.0305305, 0.998116, 0.0532139],
  "ImageType": [
    "ORIGINAL",
    "PRIMARY",
    "FMRI",
    "NONE",
    "ND",
    "NORM",
    "MOSAIC"
],
  "InPlanePhaseEncodingDirectionDICOM": "COL",
  "InstitutionAddress": "Maynard_3_Hanover_NH_US_03755",
  "InstitutionName": "Dartmouth_College_-_PBS",
  "InstitutionalDepartmentName": "Department",
  "MRAcquisitionType": "2D",
  "MagneticFieldStrength": 3,
  "Manufacturer": "Siemens",
  "ManufacturersModelName": "Prisma",
  "Modality": "MR",
  "MultibandAccelerationFactor": 4,
  "PartialFourier": 1,
  "PatientPosition": "HFS",
  "PercentPhaseFOV": 100,
  "PhaseEncodingDirection": "j-",
  "PhaseEncodingSteps": 96,
  "PhaseResolution": 1,
  "PixelBandwidth": 2365,
  "ProcedureStepDescription": "Gobbini_Matteo_1038_hyperface",
  "ProtocolName": "func_run-01_task-localizer",
  "PulseSequenceDetails": "%SiemensSeq%_ep2d_bold",
  "ReceiveCoilActiveElements": "HEA;HEP",
  "ReceiveCoilName": "Head_32",
  "ReconMatrixPE": 96,
  "RepetitionTime": 1,
  "SAR": 0.0535473,
  "ScanOptions": "FS",
  "ScanningSequence": "EP",
  "SequenceName": "_epfid2d1_96",
  "SequenceVariant": "SK",
  "SeriesDescription": "func_run-01_task-localizer",
  "SeriesNumber": 8,
  "ShimSetting": [4138, -7733, -7331, 756, -45, -32, 110, 113],
  "SliceThickness": 2.5,
  "SliceTiming": [0.735, 0, 0.49, 0.08, 0.57, 0.1625, 0.6525, 0.325, 0.815, 0.4075, 0.8975, 0.245, 0.735, 0, 0.49, 0.08, 0.57, 0.1625, 0.6525, 0.325, 0.815, 0.4075, 0.8975, 0.245, 0.735, 0, 0.49, 0.08, 0.57, 0.1625, 0.6525, 0.325, 0.815, 0.4075, 0.8975, 0.245, 0.735, 0, 0.49, 0.08, 0.57, 0.1625, 0.6525, 0.325, 0.815, 0.4075, 0.8975, 0.245],
  "SoftwareVersions": "syngo_MR_E11",
  "SpacingBetweenSlices": 2.5,
  "StationName": "AWP66112",
  "TotalReadoutTime": 0.0522511,
  "TxRefAmp": 248.024,
  "dcmmeta_affine": [
    [-2.4981753826141357, -0.07632629573345184, -0.05738994851708412, 124.91053771972656],
    [-0.07925473898649216, 2.495290756225586, 0.131311297416687, -107.6928482055664],
    [-0.05327284336090088, -0.1330348402261734, 2.495889186859131, -59.892696380615234],
    [0.0, 0.0, 0.0, 1.0]
],
  "dcmmeta_reorient_transform": [
    [0.0, -1.0, 0.0, 95.0],
    [1.0, 0.0, 0.0, 0.0],
    [0.0, 0.0, 1.0, 0.0],
    [0.0, 0.0, 0.0, 1.0]
],
  "dcmmeta_shape": [96, 96, 48, 236],
  "dcmmeta_slice_dim": 2,
  "dcmmeta_version": 0.6,
  "global": {
    "const": {
      "AccessionNumber": "A001353",
      "AcquisitionMatrix": [96, 0, 0, 96],
      "AngioFlag": "N",
      "BitsAllocated": 16,
      "BitsStored": 12,
      "BodyPartExamined": "BRAIN",
      "Columns": 672,
      "EchoNumbers": 1,
      "EchoTime": 33.0,
      "EchoTrainLength": 96,
      "FlipAngle": 59.0,
      "HighBit": 11,
      "ImageOrientationPatient": [0.99927018890411, 0.03170189677527, -0.0213091367353, -0.0305305186008, 0.99811630798355, 0.05321393775377],
      "ImagePositionPatient": [-815.15210288855, -870.82888007496, -95.502463580636],
      "ImageType": [
        "ORIGINAL",
        "PRIMARY",
        "FMRI",
        "NONE",
        "ND",
        "NORM",
        "MOSAIC"
],
      "ImagedNucleus": "1H",
      "ImagingFrequency": 123.252277,
      "InPlanePhaseEncodingDirection": "COL",
      "MRAcquisitionType": "2D",
      "MagneticFieldStrength": 3.0,
      "Manufacturer": "SIEMENS",
      "ManufacturerModelName": "Prisma",
      "Modality": "MR",
      "NumberOfAverages": 1.0,
      "NumberOfPhaseEncodingSteps": 96,
      "PercentPhaseFieldOfView": 100.0,
      "PercentSampling": 100.0,
      "PerformedProcedureStepStartTime": "145701.742000",
      "PhotometricInterpretation": "MONOCHROME2",
      "PixelBandwidth": 2365.0,
      "PixelRepresentation": 0,
      "PixelSpacing": [2.5, 2.5],
      "PositionReferenceIndicator": "",
      "ProtocolName": "func_run-01_task-localizer",
      "RepetitionTime": 1000.0,
      "Rows": 672,
      "SAR": 0.0535472668753,
      "SamplesPerPixel": 1,
      "ScanOptions": "FS",
      "ScanningSequence": "EP",
      "SequenceName": "*epfid2d1_96",
      "SequenceVariant": "SK",
      "SeriesDescription": "func_run-01_task-localizer",
      "SeriesNumber": 8,
      "SeriesTime": "151811.535000",
      "SliceLocation": -68.318177224931,
      "SliceThickness": 2.5,
      "SmallestImagePixelValue": 0,
      "SoftwareVersions": "syngo MR E11",
      "SpacingBetweenSlices": 2.4999999309946,
      "SpecificCharacterSet": "ISO_IR 100",
      "StudyID": "2",
      "StudyTime": "145701.690000",
      "TransmitCoilName": "Body",
      "VariableFlipAngleFlag": "N",
      "WindowCenterWidthExplanation": "Algo1",
      "dBdt": 0.0},
    "slices": {}
  },
  "time": {
    "samples": {
      "AcquisitionNumber": [1, 2, 3, 4, 5, 6, 7, 8, 9, 10, 11, 12, 13, 14, 15, 16, 17, 18, 19, 20, 21, 22, 23, 24, 25, 26, 27, 28, 29, 30, 31, 32, 33, 34, 35, 36, 37, 38, 39, 40, 41, 42, 43, 44, 45, 46, 47, 48, 49, 50, 51, 52, 53, 54, 55, 56, 57, 58, 59, 60, 61, 62, 63, 64, 65, 66, 67, 68, 69, 70, 71, 72, 73, 74, 75, 76, 77, 78, 79, 80, 81, 82, 83, 84, 85, 86, 87, 88, 89, 90, 91, 92, 93, 94, 95, 96, 97, 98, 99, 100, 101, 102, 103, 104, 105, 106, 107, 108, 109, 110, 111, 112, 113, 114, 115, 116, 117, 118, 119, 120, 121, 122, 123, 124, 125, 126, 127, 128, 129, 130, 131, 132, 133, 134, 135, 136, 137, 138, 139, 140, 141, 142, 143, 144, 145, 146, 147, 148, 149, 150, 151, 152, 153, 154, 155, 156, 157, 158, 159, 160, 161, 162, 163, 164, 165, 166, 167, 168, 169, 170, 171, 172, 173, 174, 175, 176, 177, 178, 179, 180, 181, 182, 183, 184, 185, 186, 187, 188, 189, 190, 191, 192, 193, 194, 195, 196, 197, 198, 199, 200, 201, 202, 203, 204, 205, 206, 207, 208, 209, 210, 211, 212, 213, 214, 215, 216, 217, 218, 219, 220, 221, 222, 223, 224, 225, 226, 227, 228, 229, 230, 231, 232, 233, 234, 235, 236],
      "AcquisitionTime": ["151809.832500", "151810.832500", "151811.832500", "151812.832500", "151813.832500", "151814.832500", "151815.832500", "151816.832500", "151817.832500", "151818.832500", "151819.832500", "151820.832500", "151821.832500", "151822.832500", "151823.832500", "151824.832500", "151825.832500", "151826.832500", "151827.832500", "151828.832500", "151829.832500", "151830.832500", "151831.832500", "151832.832500", "151833.832500", "151834.832500", "151835.832500", "151836.832500", "151837.832500", "151838.832500", "151839.832500", "151840.832500", "151841.832500", "151842.832500", "151843.832500", "151844.832500", "151845.832500", "151846.832500", "151847.832500", "151848.832500", "151849.832500", "151850.832500", "151851.832500", "151852.832500", "151853.832500", "151854.832500", "151855.832500", "151856.832500", "151857.832500", "151858.832500", "151859.832500", "151900.832500", "151901.832500", "151902.832500", "151903.832500", "151904.832500", "151905.832500", "151906.832500", "151907.832500", "151908.832500", "151909.832500", "151910.832500", "151911.832500", "151912.832500", "151913.832500", "151914.832500", "151915.832500", "151916.832500", "151917.832500", "151918.832500", "151919.832500", "151920.832500", "151921.832500", "151922.832500", "151923.832500", "151924.832500", "151925.832500", "151926.832500", "151927.832500", "151928.832500", "151929.832500", "151930.832500", "151931.832500", "151932.832500", "151933.832500", "151934.832500", "151935.832500", "151936.832500", "151937.832500", "151938.832500", "151939.832500", "151940.832500", "151941.832500", "151942.832500", "151943.832500", "151944.832500", "151945.832500", "151946.832500", "151947.832500", "151948.832500", "151949.832500", "151950.832500", "151951.832500", "151952.832500", "151953.832500", "151954.832500", "151955.832500", "151956.832500", "151957.832500", "151958.832500", "151959.832500", "152000.832500", "152001.832500", "152002.832500", "152003.832500", "152004.832500", "152005.832500", "152006.832500", "152007.832500", "152008.832500", "152009.832500", "152010.832500", "152011.832500", "152012.832500", "152013.832500", "152014.832500", "152015.832500", "152016.832500", "152017.832500", "152018.832500", "152019.832500", "152020.832500", "152021.832500", "152022.832500", "152023.832500", "152024.832500", "152025.832500", "152026.832500", "152027.832500", "152028.832500", "152029.832500", "152030.832500", "152031.832500", "152032.832500", "152033.832500", "152034.832500", "152035.832500", "152036.832500", "152037.832500", "152038.832500", "152039.832500", "152040.832500", "152041.832500", "152042.832500", "152043.832500", "152044.832500", "152045.832500", "152046.832500", "152047.832500", "152048.832500", "152049.832500", "152050.832500", "152051.832500", "152052.832500", "152053.832500", "152054.832500", "152055.832500", "152056.832500", "152057.832500", "152058.832500", "152059.832500", "152100.832500", "152101.832500", "152102.832500", "152103.832500", "152104.832500", "152105.832500", "152106.832500", "152107.832500", "152108.832500", "152109.832500", "152110.832500", "152111.832500", "152112.832500", "152113.832500", "152114.832500", "152115.832500", "152116.832500", "152117.832500", "152118.832500", "152119.832500", "152120.832500", "152121.832500", "152122.832500", "152123.832500", "152124.832500", "152125.832500", "152126.832500", "152127.832500", "152128.832500", "152129.832500", "152130.832500", "152131.832500", "152132.832500", "152133.832500", "152134.832500", "152135.832500", "152136.832500", "152137.832500", "152138.832500", "152139.832500", "152140.832500", "152141.832500", "152142.832500", "152143.832500", "152144.832500", "152145.832500", "152146.832500", "152147.832500", "152148.832500", "152149.832500", "152150.832500", "152151.832500", "152152.832500", "152153.832500", "152154.832500", "152155.832500", "152156.832500", "152157.832500", "152158.832500", "152159.832500", "152200.832500", "152201.832500", "152202.832500", "152203.832500", "152204.832500"],
      "ContentTime": ["151811.540000", "151812.306000", "151813.285000", "151814.287000", "151815.292000", "151816.315000", "151817.329000", "151818.311000", "151819.294000", "151820.321000", "151821.299000", "151822.298000", "151823.326000", "151824.326000", "151825.334000", "151826.310000", "151827.314000", "151828.284000", "151829.353000", "151830.329000", "151831.315000", "151832.316000", "151833.301000", "151834.337000", "151835.351000", "151836.376000", "151837.316000", "151838.312000", "151839.287000", "151840.343000", "151841.328000", "151842.302000", "151843.319000", "151844.306000", "151845.333000", "151846.313000", "151847.293000", "151848.318000", "151849.311000", "151850.307000", "151851.306000", "151852.266000", "151853.306000", "151854.310000", "151855.310000", "151856.310000", "151857.323000", "151858.308000", "151859.324000", "151900.307000", "151901.330000", "151902.304000", "151903.312000", "151904.298000", "151905.355000", "151906.345000", "151907.291000", "151908.288000", "151909.319000", "151910.297000", "151911.305000", "151912.304000", "151913.286000", "151914.294000", "151915.293000", "151916.296000", "151917.306000", "151918.310000", "151919.305000", "151920.323000", "151921.307000", "151922.321000", "151923.315000", "151924.319000", "151925.313000", "151926.306000", "151927.359000", "151928.307000", "151929.321000", "151930.312000", "151931.308000", "151932.370000", "151933.325000", "151934.332000", "151935.311000", "151936.381000", "151937.313000", "151938.291000", "151939.323000", "151940.322000", "151941.304000", "151942.303000", "151943.324000", "151944.313000", "151945.314000", "151946.353000", "151947.319000", "151948.349000", "151949.306000", "151950.330000", "151951.326000", "151952.324000", "151953.341000", "151954.315000", "151955.312000", "151956.305000", "151957.308000", "151958.327000", "151959.283000", "152000.313000", "152001.321000", "152002.312000", "152003.384000", "152004.306000", "152005.301000", "152006.336000", "152007.322000", "152008.327000", "152009.328000", "152010.329000", "152011.327000", "152012.312000", "152013.334000", "152014.281000", "152015.343000", "152016.318000", "152017.317000", "152018.312000", "152019.316000", "152020.310000", "152021.327000", "152022.364000", "152023.303000", "152024.314000", "152025.321000", "152026.304000", "152027.301000", "152028.289000", "152029.300000", "152030.323000", "152031.319000", "152032.307000", "152033.352000", "152034.368000", "152035.324000", "152036.297000", "152037.306000", "152038.302000", "152039.308000", "152040.274000", "152041.303000", "152042.293000", "152043.344000", "152044.300000", "152045.265000", "152046.354000", "152047.298000", "152048.317000", "152049.374000", "152050.342000", "152051.352000", "152052.315000", "152053.350000", "152054.325000", "152055.321000", "152056.303000", "152057.331000", "152058.315000", "152059.349000", "152100.347000", "152101.362000", "152102.283000", "152103.337000", "152104.345000", "152105.324000", "152106.311000", "152107.282000", "152108.319000", "152109.300000", "152110.308000", "152111.288000", "152112.310000", "152113.308000", "152114.326000", "152115.303000", "152116.312000", "152117.312000", "152118.287000", "152119.326000", "152120.321000", "152121.333000", "152122.319000", "152123.324000", "152124.293000", "152125.298000", "152126.292000", "152127.303000", "152128.289000", "152129.326000", "152130.333000", "152131.289000", "152132.308000", "152133.286000", "152134.308000", "152135.322000", "152136.328000", "152137.313000", "152138.355000", "152139.321000", "152140.300000", "152141.316000", "152142.299000", "152143.326000", "152144.298000", "152145.313000", "152146.324000", "152147.300000", "152148.292000", "152149.264000", "152150.316000", "152151.320000", "152152.324000", "152153.311000", "152154.313000", "152155.344000", "152156.323000", "152157.279000", "152158.283000", "152159.354000", "152200.300000", "152201.300000", "152202.299000", "152203.343000", "152204.308000", "152205.321000", "152206.342000"],
      "InstanceCreationTime": ["151811.540000", "151812.306000", "151813.285000", "151814.287000", "151815.292000", "151816.315000", "151817.329000", "151818.311000", "151819.294000", "151820.321000", "151821.299000", "151822.298000", "151823.326000", "151824.326000", "151825.334000", "151826.310000", "151827.314000", "151828.284000", "151829.353000", "151830.329000", "151831.315000", "151832.316000", "151833.301000", "151834.337000", "151835.351000", "151836.376000", "151837.316000", "151838.312000", "151839.287000", "151840.343000", "151841.328000", "151842.302000", "151843.319000", "151844.306000", "151845.333000", "151846.313000", "151847.293000", "151848.318000", "151849.311000", "151850.307000", "151851.306000", "151852.266000", "151853.306000", "151854.310000", "151855.310000", "151856.310000", "151857.323000", "151858.308000", "151859.324000", "151900.307000", "151901.330000", "151902.304000", "151903.312000", "151904.298000", "151905.355000", "151906.345000", "151907.291000", "151908.288000", "151909.319000", "151910.297000", "151911.305000", "151912.304000", "151913.286000", "151914.294000", "151915.293000", "151916.296000", "151917.306000", "151918.310000", "151919.305000", "151920.323000", "151921.307000", "151922.321000", "151923.315000", "151924.319000", "151925.313000", "151926.306000", "151927.359000", "151928.307000", "151929.321000", "151930.312000", "151931.308000", "151932.370000", "151933.325000", "151934.332000", "151935.311000", "151936.381000", "151937.313000", "151938.291000", "151939.323000", "151940.322000", "151941.304000", "151942.303000", "151943.324000", "151944.313000", "151945.314000", "151946.353000", "151947.319000", "151948.349000", "151949.306000", "151950.330000", "151951.326000", "151952.324000", "151953.341000", "151954.315000", "151955.312000", "151956.305000", "151957.308000", "151958.327000", "151959.283000", "152000.313000", "152001.321000", "152002.312000", "152003.384000", "152004.306000", "152005.301000", "152006.336000", "152007.322000", "152008.327000", "152009.328000", "152010.329000", "152011.327000", "152012.312000", "152013.334000", "152014.281000", "152015.343000", "152016.318000", "152017.317000", "152018.312000", "152019.316000", "152020.310000", "152021.327000", "152022.364000", "152023.303000", "152024.314000", "152025.321000", "152026.304000", "152027.301000", "152028.289000", "152029.300000", "152030.323000", "152031.319000", "152032.307000", "152033.352000", "152034.368000", "152035.324000", "152036.297000", "152037.306000", "152038.302000", "152039.308000", "152040.274000", "152041.303000", "152042.293000", "152043.344000", "152044.300000", "152045.265000", "152046.354000", "152047.298000", "152048.317000", "152049.374000", "152050.342000", "152051.352000", "152052.315000", "152053.350000", "152054.325000", "152055.321000", "152056.303000", "152057.331000", "152058.315000", "152059.349000", "152100.347000", "152101.362000", "152102.283000", "152103.337000", "152104.345000", "152105.324000", "152106.311000", "152107.282000", "152108.319000", "152109.300000", "152110.308000", "152111.288000", "152112.310000", "152113.308000", "152114.326000", "152115.303000", "152116.312000", "152117.312000", "152118.287000", "152119.326000", "152120.321000", "152121.333000", "152122.319000", "152123.324000", "152124.293000", "152125.298000", "152126.292000", "152127.303000", "152128.289000", "152129.326000", "152130.333000", "152131.289000", "152132.308000", "152133.286000", "152134.308000", "152135.322000", "152136.328000", "152137.313000", "152138.355000", "152139.321000", "152140.300000", "152141.316000", "152142.299000", "152143.326000", "152144.298000", "152145.313000", "152146.324000", "152147.300000", "152148.292000", "152149.264000", "152150.316000", "152151.320000", "152152.324000", "152153.311000", "152154.313000", "152155.344000", "152156.323000", "152157.279000", "152158.283000", "152159.354000", "152200.300000", "152201.300000", "152202.299000", "152203.343000", "152204.308000", "152205.321000", "152206.342000"],
      "InstanceNumber": [1, 2, 3, 4, 5, 6, 7, 8, 9, 10, 11, 12, 13, 14, 15, 16, 17, 18, 19, 20, 21, 22, 23, 24, 25, 26, 27, 28, 29, 30, 31, 32, 33, 34, 35, 36, 37, 38, 39, 40, 41, 42, 43, 44, 45, 46, 47, 48, 49, 50, 51, 52, 53, 54, 55, 56, 57, 58, 59, 60, 61, 62, 63, 64, 65, 66, 67, 68, 69, 70, 71, 72, 73, 74, 75, 76, 77, 78, 79, 80, 81, 82, 83, 84, 85, 86, 87, 88, 89, 90, 91, 92, 93, 94, 95, 96, 97, 98, 99, 100, 101, 102, 103, 104, 105, 106, 107, 108, 109, 110, 111, 112, 113, 114, 115, 116, 117, 118, 119, 120, 121, 122, 123, 124, 125, 126, 127, 128, 129, 130, 131, 132, 133, 134, 135, 136, 137, 138, 139, 140, 141, 142, 143, 144, 145, 146, 147, 148, 149, 150, 151, 152, 153, 154, 155, 156, 157, 158, 159, 160, 161, 162, 163, 164, 165, 166, 167, 168, 169, 170, 171, 172, 173, 174, 175, 176, 177, 178, 179, 180, 181, 182, 183, 184, 185, 186, 187, 188, 189, 190, 191, 192, 193, 194, 195, 196, 197, 198, 199, 200, 201, 202, 203, 204, 205, 206, 207, 208, 209, 210, 211, 212, 213, 214, 215, 216, 217, 218, 219, 220, 221, 222, 223, 224, 225, 226, 227, 228, 229, 230, 231, 232, 233, 234, 235, 236],
      "LargestImagePixelValue": [871, 918, 828, 791, 700, 755, 714, 684, 732, 731, 750, 697, 735, 703, 706, 712, 751, 983, 993, 846, 715, 753, 725, 734, 717, 689, 684, 676, 714, 683, 798, 947, 856, 698, 693, 679, 685, 680, 667, 762, 714, 693, 670, 705, 738, 1022, 907, 744, 705, 755, 720, 727, 697, 682, 798, 880, 875, 754, 743, 735, 741, 706, 711, 694, 671, 715, 937, 984, 763, 761, 700, 749, 739, 690, 692, 682, 676, 868, 896, 906, 818, 715, 679, 698, 719, 722, 713, 685, 678, 688, 699, 709, 760, 718, 688, 667, 716, 698, 668, 726, 667, 715, 744, 828, 978, 860, 765, 732, 722, 685, 703, 692, 688, 799, 900, 943, 847, 840, 781, 706, 730, 709, 713, 736, 689, 681, 694, 700, 708, 692, 703, 682, 691, 667, 858, 893, 864, 807, 764, 714, 698, 725, 687, 706, 679, 705, 735, 685, 720, 689, 669, 688, 720, 676, 877, 957, 895, 761, 733, 693, 684, 689, 693, 680, 701, 697, 741, 681, 693, 676, 678, 682, 703, 700, 696, 702, 671, 718, 677, 725, 731, 705, 789, 864, 924, 1056, 1033, 863, 816, 866, 840, 797, 820, 806, 779, 695, 724, 684, 739, 724, 717, 697, 874, 927, 829, 812, 780, 695, 749, 695, 713, 711, 697, 677, 694, 691, 675, 737, 679, 736, 859, 802, 862, 912, 873, 908, 943, 895, 837, 805, 772, 715, 731, 743, 720, 714],
      "WindowCenter": [362.0, 362.0, 360.0, 360.0, 359.0, 360.0, 359.0, 358.0, 359.0, 359.0, 359.0, 358.0, 358.0, 358.0, 358.0, 358.0, 359.0, 360.0, 360.0, 359.0, 357.0, 358.0, 358.0, 358.0, 358.0, 358.0, 358.0, 358.0, 358.0, 357.0, 359.0, 361.0, 360.0, 358.0, 358.0, 358.0, 358.0, 358.0, 358.0, 359.0, 358.0, 358.0, 358.0, 358.0, 358.0, 361.0, 360.0, 359.0, 358.0, 359.0, 358.0, 358.0, 358.0, 358.0, 359.0, 360.0, 360.0, 359.0, 359.0, 359.0, 359.0, 358.0, 358.0, 358.0, 358.0, 358.0, 361.0, 361.0, 359.0, 358.0, 358.0, 358.0, 358.0, 358.0, 358.0, 358.0, 358.0, 360.0, 360.0, 360.0, 359.0, 358.0, 358.0, 358.0, 358.0, 358.0, 358.0, 358.0, 358.0, 358.0, 358.0, 358.0, 360.0, 360.0, 359.0, 358.0, 359.0, 358.0, 358.0, 358.0, 358.0, 359.0, 360.0, 360.0, 362.0, 361.0, 360.0, 359.0, 358.0, 358.0, 358.0, 358.0, 358.0, 359.0, 360.0, 360.0, 360.0, 359.0, 359.0, 358.0, 358.0, 358.0, 358.0, 358.0, 358.0, 358.0, 358.0, 358.0, 358.0, 358.0, 358.0, 357.0, 357.0, 358.0, 359.0, 360.0, 360.0, 359.0, 359.0, 358.0, 358.0, 358.0, 358.0, 358.0, 358.0, 358.0, 358.0, 358.0, 358.0, 358.0, 358.0, 358.0, 358.0, 357.0, 360.0, 360.0, 360.0, 359.0, 358.0, 358.0, 358.0, 358.0, 358.0, 358.0, 358.0, 358.0, 359.0, 358.0, 358.0, 358.0, 358.0, 358.0, 358.0, 358.0, 358.0, 358.0, 358.0, 359.0, 357.0, 358.0, 360.0, 359.0, 360.0, 361.0, 361.0, 362.0, 361.0, 359.0, 359.0, 359.0, 359.0, 359.0, 360.0, 360.0, 360.0, 358.0, 359.0, 359.0, 359.0, 358.0, 358.0, 358.0, 360.0, 361.0, 359.0, 359.0, 360.0, 358.0, 358.0, 358.0, 358.0, 358.0, 358.0, 358.0, 358.0, 358.0, 357.0, 358.0, 358.0, 358.0, 359.0, 359.0, 360.0, 360.0, 359.0, 360.0, 360.0, 359.0, 359.0, 359.0, 358.0, 358.0, 358.0, 358.0, 358.0, 358.0],
      "WindowWidth": [774.0, 774.0, 771.0, 771.0, 769.0, 769.0, 769.0, 768.0, 768.0, 768.0, 768.0, 767.0, 767.0, 766.0, 766.0, 767.0, 768.0, 770.0, 770.0, 768.0, 766.0, 767.0, 766.0, 767.0, 766.0, 766.0, 766.0, 766.0, 767.0, 766.0, 769.0, 770.0, 770.0, 767.0, 767.0, 768.0, 768.0, 767.0, 766.0, 768.0, 767.0, 767.0, 766.0, 767.0, 767.0, 770.0, 769.0, 768.0, 767.0, 768.0, 767.0, 767.0, 768.0, 767.0, 769.0, 770.0, 770.0, 768.0, 768.0, 768.0, 768.0, 767.0, 767.0, 766.0, 766.0, 767.0, 770.0, 771.0, 768.0, 767.0, 766.0, 767.0, 767.0, 767.0, 767.0, 767.0, 767.0, 769.0, 770.0, 770.0, 768.0, 767.0, 766.0, 766.0, 767.0, 767.0, 767.0, 766.0, 767.0, 768.0, 767.0, 767.0, 771.0, 770.0, 769.0, 768.0, 769.0, 767.0, 767.0, 767.0, 766.0, 769.0, 770.0, 770.0, 773.0, 771.0, 770.0, 768.0, 767.0, 767.0, 767.0, 767.0, 767.0, 769.0, 770.0, 770.0, 770.0, 769.0, 768.0, 767.0, 767.0, 767.0, 767.0, 767.0, 766.0, 766.0, 766.0, 766.0, 766.0, 766.0, 766.0, 766.0, 766.0, 766.0, 768.0, 769.0, 770.0, 768.0, 768.0, 767.0, 767.0, 767.0, 767.0, 767.0, 767.0, 767.0, 767.0, 766.0, 767.0, 767.0, 766.0, 767.0, 767.0, 766.0, 770.0, 769.0, 769.0, 768.0, 767.0, 767.0, 766.0, 767.0, 767.0, 767.0, 767.0, 767.0, 768.0, 767.0, 768.0, 768.0, 767.0, 768.0, 768.0, 768.0, 768.0, 767.0, 768.0, 768.0, 766.0, 767.0, 770.0, 769.0, 771.0, 772.0, 772.0, 772.0, 771.0, 769.0, 768.0, 769.0, 769.0, 769.0, 769.0, 769.0, 769.0, 768.0, 768.0, 768.0, 768.0, 768.0, 767.0, 767.0, 770.0, 770.0, 769.0, 769.0, 769.0, 767.0, 767.0, 767.0, 767.0, 767.0, 767.0, 766.0, 766.0, 766.0, 766.0, 767.0, 766.0, 767.0, 768.0, 768.0, 769.0, 769.0, 768.0, 769.0, 769.0, 768.0, 768.0, 767.0, 767.0, 766.0, 766.0, 767.0, 767.0, 766.0]
    },
    "slices": {}
  }
}