{
  "AcquisitionMatrixPE": 96,
  "AcquisitionNumber": 1,
  "AcquisitionTime": "15:43:18.737500",
  "BandwidthPerPixelPhaseEncode": 18.939,
  "BaseResolution": 96,
  "BodyPartExamined": "BRAIN",
  "ConsistencyInfo": "N4_VE11C_LATEST_20160120",
  "ConversionSoftware": "dcm2niix",
  "ConversionSoftwareVersion": "v1.0.20171215 (OpenJPEG build) GCC6.3.0",
  "DerivedVendorReportedEchoSpacing": 0.000550011,
  "DeviceSerialNumber": "66112",
  "DwellTime": 2.2e-06,
  "EchoTime": 0.033,
  "EchoTrainLength": 96,
  "EffectiveEchoSpacing": 0.000550011,
  "FlipAngle": 59,
  "ImageOrientationPatientDICOM": [
    0.99927,
    0.0317019,
    -0.0213091,
    -0.0305305,
    0.998116,
    0.0532139
  ],
  "ImageType": [
    "ORIGINAL",
    "PRIMARY",
    "FMRI",
    "NONE",
    "ND",
    "NORM",
    "MOSAIC"
  ],
  "InPlanePhaseEncodingDirectionDICOM": "COL",
  "InstitutionAddress": "Maynard_3_Hanover_NH_US_03755",
  "InstitutionName": "Dartmouth_College_-_PBS",
  "InstitutionalDepartmentName": "Department",
  "MRAcquisitionType": "2D",
  "MagneticFieldStrength": 3,
  "Manufacturer": "Siemens",
  "ManufacturersModelName": "Prisma",
  "Modality": "MR",
  "MultibandAccelerationFactor": 4,
  "PatientPosition": "HFS",
  "PercentPhaseFOV": 100,
  "PhaseEncodingDirection": "j-",
  "PhaseEncodingSteps": 96,
  "PhaseResolution": 1,
  "PixelBandwidth": 2365,
  "ProcedureStepDescription": "Gobbini_Matteo_1038_hyperface",
  "ProtocolName": "func_run-06_task-visualmemory",
  "PulseSequenceDetails": "%SiemensSeq%_ep2d_bold",
  "ReceiveCoilActiveElements": "HEA;HEP",
  "ReceiveCoilName": "Head_32",
  "ReconMatrixPE": 96,
  "RepetitionTime": 1,
  "SAR": 0.0536756,
  "ScanOptions": "FS",
  "ScanningSequence": "EP",
  "SequenceName": "_epfid2d1_96",
  "SequenceVariant": "SK",
  "SeriesDescription": "func_run-06_task-visualmemory",
  "SeriesNumber": 43,
  "ShimSetting": [
    4138,
    -7733,
    -7331,
    756,
    -45,
    -32,
    110,
    113
  ],
  "SliceThickness": 2.5,
  "SliceTiming": [
    0.735,
    0,
    0.49,
    0.0825,
    0.5725,
    0.1625,
    0.6525,
    0.3275,
    0.8175,
    0.4075,
    0.8975,
    0.245,
    0.735,
    0,
    0.49,
    0.0825,
    0.5725,
    0.1625,
    0.6525,
    0.3275,
    0.8175,
    0.4075,
    0.8975,
    0.245,
    0.735,
    0,
    0.49,
    0.0825,
    0.5725,
    0.1625,
    0.6525,
    0.3275,
    0.8175,
    0.4075,
    0.8975,
    0.245,
    0.735,
    0,
    0.49,
    0.0825,
    0.5725,
    0.1625,
    0.6525,
    0.3275,
    0.8175,
    0.4075,
    0.8975,
    0.245
  ],
  "SoftwareVersions": "syngo_MR_E11",
  "SpacingBetweenSlices": 2.5,
  "StationName": "AWP66112",
  "TotalReadoutTime": 0.0522511,
  "TxRefAmp": 248.024,
  "dcmmeta_affine": [
    [
      -2.4981753826141357,
      -0.07632629573345184,
      -0.05738994851708412,
      124.91053771972656
    ],
    [
      -0.07925473898649216,
      2.495290756225586,
      0.131311297416687,
      -107.6928482055664
    ],
    [
      -0.05327284336090088,
      -0.1330348402261734,
      2.495889186859131,
      -59.892696380615234
    ],
    [
      0.0,
      0.0,
      0.0,
      1.0
    ]
  ],
  "dcmmeta_reorient_transform": [
    [
      0.0,
      -1.0,
      0.0,
      95.0
    ],
    [
      1.0,
      0.0,
      0.0,
      0.0
    ],
    [
      0.0,
      0.0,
      1.0,
      0.0
    ],
    [
      0.0,
      0.0,
      0.0,
      1.0
    ]
  ],
  "dcmmeta_shape": [
    96,
    96,
    48,
    288
  ],
  "dcmmeta_slice_dim": 2,
  "dcmmeta_version": 0.6,
  "global": {
    "const": {
      "AccessionNumber": "A001353",
      "AcquisitionMatrix": [
        96,
        0,
        0,
        96
      ],
      "AngioFlag": "N",
      "BitsAllocated": 16,
      "BitsStored": 12,
      "BodyPartExamined": "BRAIN",
      "Columns": 672,
      "EchoNumbers": 1,
      "EchoTime": 33.0,
      "EchoTrainLength": 96,
      "FlipAngle": 59.0,
      "HighBit": 11,
      "ImageOrientationPatient": [
        0.99927018890411,
        0.03170189677527,
        -0.0213091367353,
        -0.0305305186008,
        0.99811630798355,
        0.05321393775377
      ],
      "ImagePositionPatient": [
        -815.15210288855,
        -870.82888007496,
        -95.502463580636
      ],
      "ImageType": [
        "ORIGINAL",
        "PRIMARY",
        "FMRI",
        "NONE",
        "ND",
        "NORM",
        "MOSAIC"
      ],
      "ImagedNucleus": "1H",
      "ImagingFrequency": 123.252291,
      "InPlanePhaseEncodingDirection": "COL",
      "MRAcquisitionType": "2D",
      "MagneticFieldStrength": 3.0,
      "Manufacturer": "SIEMENS",
      "ManufacturerModelName": "Prisma",
      "Modality": "MR",
      "NumberOfAverages": 1.0,
      "NumberOfPhaseEncodingSteps": 96,
      "PercentPhaseFieldOfView": 100.0,
      "PercentSampling": 100.0,
      "PerformedProcedureStepStartTime": "145701.742000",
      "PhotometricInterpretation": "MONOCHROME2",
      "PixelBandwidth": 2365.0,
      "PixelRepresentation": 0,
      "PixelSpacing": [
        2.5,
        2.5
      ],
      "PositionReferenceIndicator": "",
      "ProtocolName": "func_run-06_task-visualmemory",
      "RepetitionTime": 1000.0,
      "Rows": 672,
      "SAR": 0.05367561129469,
      "SamplesPerPixel": 1,
      "ScanOptions": "FS",
      "ScanningSequence": "EP",
      "SequenceName": "*epfid2d1_96",
      "SequenceVariant": "SK",
      "SeriesDescription": "func_run-06_task-visualmemory",
      "SeriesNumber": 43,
      "SeriesTime": "154320.022000",
      "SliceLocation": -68.318177224931,
      "SliceThickness": 2.5,
      "SmallestImagePixelValue": 0,
      "SoftwareVersions": "syngo MR E11",
      "SpacingBetweenSlices": 2.4999999309946,
      "SpecificCharacterSet": "ISO_IR 100",
      "StudyID": "2",
      "StudyTime": "145701.690000",
      "TransmitCoilName": "Body",
      "VariableFlipAngleFlag": "N",
      "WindowCenterWidthExplanation": "Algo1",
      "dBdt": 0.0
    },
    "slices": {}
  },
  "time": {
    "samples": {
      "AcquisitionNumber": [
        1,
        2,
        3,
        4,
        5,
        6,
        7,
        8,
        9,
        10,
        11,
        12,
        13,
        14,
        15,
        16,
        17,
        18,
        19,
        20,
        21,
        22,
        23,
        24,
        25,
        26,
        27,
        28,
        29,
        30,
        31,
        32,
        33,
        34,
        35,
        36,
        37,
        38,
        39,
        40,
        41,
        42,
        43,
        44,
        45,
        46,
        47,
        48,
        49,
        50,
        51,
        52,
        53,
        54,
        55,
        56,
        57,
        58,
        59,
        60,
        61,
        62,
        63,
        64,
        65,
        66,
        67,
        68,
        69,
        70,
        71,
        72,
        73,
        74,
        75,
        76,
        77,
        78,
        79,
        80,
        81,
        82,
        83,
        84,
        85,
        86,
        87,
        88,
        89,
        90,
        91,
        92,
        93,
        94,
        95,
        96,
        97,
        98,
        99,
        100,
        101,
        102,
        103,
        104,
        105,
        106,
        107,
        108,
        109,
        110,
        111,
        112,
        113,
        114,
        115,
        116,
        117,
        118,
        119,
        120,
        121,
        122,
        123,
        124,
        125,
        126,
        127,
        128,
        129,
        130,
        131,
        132,
        133,
        134,
        135,
        136,
        137,
        138,
        139,
        140,
        141,
        142,
        143,
        144,
        145,
        146,
        147,
        148,
        149,
        150,
        151,
        152,
        153,
        154,
        155,
        156,
        157,
        158,
        159,
        160,
        161,
        162,
        163,
        164,
        165,
        166,
        167,
        168,
        169,
        170,
        171,
        172,
        173,
        174,
        175,
        176,
        177,
        178,
        179,
        180,
        181,
        182,
        183,
        184,
        185,
        186,
        187,
        188,
        189,
        190,
        191,
        192,
        193,
        194,
        195,
        196,
        197,
        198,
        199,
        200,
        201,
        202,
        203,
        204,
        205,
        206,
        207,
        208,
        209,
        210,
        211,
        212,
        213,
        214,
        215,
        216,
        217,
        218,
        219,
        220,
        221,
        222,
        223,
        224,
        225,
        226,
        227,
        228,
        229,
        230,
        231,
        232,
        233,
        234,
        235,
        236,
        237,
        238,
        239,
        240,
        241,
        242,
        243,
        244,
        245,
        246,
        247,
        248,
        249,
        250,
        251,
        252,
        253,
        254,
        255,
        256,
        257,
        258,
        259,
        260,
        261,
        262,
        263,
        264,
        265,
        266,
        267,
        268,
        269,
        270,
        271,
        272,
        273,
        274,
        275,
        276,
        277,
        278,
        279,
        280,
        281,
        282,
        283,
        284,
        285,
        286,
        287,
        288
      ],
      "AcquisitionTime": [
        "154318.737500",
        "154319.737500",
        "154320.737500",
        "154321.737500",
        "154322.737500",
        "154323.737500",
        "154324.737500",
        "154325.737500",
        "154326.737500",
        "154327.737500",
        "154328.737500",
        "154329.737500",
        "154330.737500",
        "154331.737500",
        "154332.737500",
        "154333.737500",
        "154334.737500",
        "154335.737500",
        "154336.737500",
        "154337.737500",
        "154338.737500",
        "154339.737500",
        "154340.737500",
        "154341.737500",
        "154342.737500",
        "154343.737500",
        "154344.737500",
        "154345.737500",
        "154346.737500",
        "154347.737500",
        "154348.737500",
        "154349.737500",
        "154350.737500",
        "154351.737500",
        "154352.737500",
        "154353.737500",
        "154354.737500",
        "154355.737500",
        "154356.737500",
        "154357.737500",
        "154358.737500",
        "154359.737500",
        "154400.737500",
        "154401.737500",
        "154402.737500",
        "154403.737500",
        "154404.737500",
        "154405.737500",
        "154406.737500",
        "154407.737500",
        "154408.737500",
        "154409.737500",
        "154410.737500",
        "154411.737500",
        "154412.737500",
        "154413.737500",
        "154414.737500",
        "154415.737500",
        "154416.737500",
        "154417.737500",
        "154418.737500",
        "154419.737500",
        "154420.737500",
        "154421.737500",
        "154422.737500",
        "154423.737500",
        "154424.737500",
        "154425.737500",
        "154426.737500",
        "154427.737500",
        "154428.737500",
        "154429.737500",
        "154430.737500",
        "154431.737500",
        "154432.737500",
        "154433.737500",
        "154434.737500",
        "154435.737500",
        "154436.737500",
        "154437.737500",
        "154438.737500",
        "154439.737500",
        "154440.737500",
        "154441.737500",
        "154442.737500",
        "154443.737500",
        "154444.737500",
        "154445.737500",
        "154446.737500",
        "154447.737500",
        "154448.737500",
        "154449.737500",
        "154450.737500",
        "154451.737500",
        "154452.737500",
        "154453.737500",
        "154454.737500",
        "154455.737500",
        "154456.737500",
        "154457.737500",
        "154458.737500",
        "154459.737500",
        "154500.737500",
        "154501.737500",
        "154502.737500",
        "154503.737500",
        "154504.737500",
        "154505.737500",
        "154506.737500",
        "154507.737500",
        "154508.737500",
        "154509.737500",
        "154510.737500",
        "154511.737500",
        "154512.737500",
        "154513.737500",
        "154514.737500",
        "154515.737500",
        "154516.737500",
        "154517.737500",
        "154518.737500",
        "154519.737500",
        "154520.737500",
        "154521.737500",
        "154522.737500",
        "154523.737500",
        "154524.737500",
        "154525.737500",
        "154526.737500",
        "154527.737500",
        "154528.737500",
        "154529.737500",
        "154530.737500",
        "154531.737500",
        "154532.737500",
        "154533.737500",
        "154534.737500",
        "154535.737500",
        "154536.737500",
        "154537.737500",
        "154538.737500",
        "154539.737500",
        "154540.737500",
        "154541.737500",
        "154542.737500",
        "154543.737500",
        "154544.737500",
        "154545.737500",
        "154546.737500",
        "154547.737500",
        "154548.737500",
        "154549.737500",
        "154550.737500",
        "154551.737500",
        "154552.737500",
        "154553.737500",
        "154554.737500",
        "154555.737500",
        "154556.737500",
        "154557.737500",
        "154558.737500",
        "154559.737500",
        "154600.737500",
        "154601.737500",
        "154602.737500",
        "154603.737500",
        "154604.737500",
        "154605.737500",
        "154606.737500",
        "154607.737500",
        "154608.737500",
        "154609.737500",
        "154610.737500",
        "154611.737500",
        "154612.737500",
        "154613.737500",
        "154614.737500",
        "154615.737500",
        "154616.737500",
        "154617.737500",
        "154618.737500",
        "154619.737500",
        "154620.737500",
        "154621.737500",
        "154622.737500",
        "154623.737500",
        "154624.737500",
        "154625.737500",
        "154626.737500",
        "154627.737500",
        "154628.737500",
        "154629.737500",
        "154630.737500",
        "154631.737500",
        "154632.737500",
        "154633.737500",
        "154634.737500",
        "154635.737500",
        "154636.737500",
        "154637.737500",
        "154638.737500",
        "154639.737500",
        "154640.737500",
        "154641.737500",
        "154642.737500",
        "154643.737500",
        "154644.737500",
        "154645.737500",
        "154646.737500",
        "154647.737500",
        "154648.737500",
        "154649.737500",
        "154650.737500",
        "154651.737500",
        "154652.737500",
        "154653.737500",
        "154654.737500",
        "154655.737500",
        "154656.737500",
        "154657.737500",
        "154658.737500",
        "154659.737500",
        "154700.737500",
        "154701.737500",
        "154702.737500",
        "154703.737500",
        "154704.737500",
        "154705.737500",
        "154706.737500",
        "154707.737500",
        "154708.737500",
        "154709.737500",
        "154710.737500",
        "154711.737500",
        "154712.737500",
        "154713.737500",
        "154714.737500",
        "154715.737500",
        "154716.737500",
        "154717.737500",
        "154718.737500",
        "154719.737500",
        "154720.737500",
        "154721.737500",
        "154722.737500",
        "154723.737500",
        "154724.737500",
        "154725.737500",
        "154726.737500",
        "154727.737500",
        "154728.737500",
        "154729.737500",
        "154730.737500",
        "154731.737500",
        "154732.737500",
        "154733.737500",
        "154734.737500",
        "154735.737500",
        "154736.737500",
        "154737.737500",
        "154738.737500",
        "154739.737500",
        "154740.737500",
        "154741.737500",
        "154742.737500",
        "154743.737500",
        "154744.737500",
        "154745.737500",
        "154746.737500",
        "154747.737500",
        "154748.737500",
        "154749.737500",
        "154750.737500",
        "154751.737500",
        "154752.737500",
        "154753.737500",
        "154754.737500",
        "154755.737500",
        "154756.737500",
        "154757.737500",
        "154758.737500",
        "154759.737500",
        "154800.737500",
        "154801.737500",
        "154802.737500",
        "154803.737500",
        "154804.737500",
        "154805.737500"
      ],
      "ContentTime": [
        "154320.025000",
        "154320.842000",
        "154321.783000",
        "154322.866000",
        "154323.816000",
        "154324.828000",
        "154325.802000",
        "154326.797000",
        "154327.797000",
        "154328.813000",
        "154329.802000",
        "154330.793000",
        "154331.810000",
        "154332.833000",
        "154333.820000",
        "154334.807000",
        "154335.814000",
        "154336.808000",
        "154337.819000",
        "154338.847000",
        "154339.790000",
        "154340.791000",
        "154341.792000",
        "154342.810000",
        "154343.840000",
        "154344.828000",
        "154345.785000",
        "154346.837000",
        "154347.847000",
        "154348.792000",
        "154349.808000",
        "154350.815000",
        "154351.811000",
        "154352.780000",
        "154353.819000",
        "154354.814000",
        "154355.797000",
        "154356.813000",
        "154357.801000",
        "154358.796000",
        "154359.823000",
        "154400.825000",
        "154401.833000",
        "154402.821000",
        "154403.803000",
        "154404.821000",
        "154405.792000",
        "154406.780000",
        "154407.796000",
        "154408.867000",
        "154409.821000",
        "154410.808000",
        "154411.807000",
        "154412.805000",
        "154413.798000",
        "154414.798000",
        "154415.798000",
        "154416.844000",
        "154417.769000",
        "154418.777000",
        "154419.858000",
        "154420.829000",
        "154421.795000",
        "154422.795000",
        "154423.840000",
        "154424.793000",
        "154425.779000",
        "154426.806000",
        "154427.839000",
        "154428.817000",
        "154429.791000",
        "154430.793000",
        "154431.802000",
        "154432.802000",
        "154433.795000",
        "154434.802000",
        "154435.797000",
        "154436.780000",
        "154437.786000",
        "154438.831000",
        "154439.796000",
        "154440.769000",
        "154441.833000",
        "154442.775000",
        "154443.798000",
        "154444.802000",
        "154445.844000",
        "154446.840000",
        "154447.811000",
        "154448.864000",
        "154449.809000",
        "154450.811000",
        "154451.780000",
        "154452.799000",
        "154453.779000",
        "154454.808000",
        "154455.796000",
        "154456.789000",
        "154457.794000",
        "154458.797000",
        "154459.814000",
        "154500.849000",
        "154501.791000",
        "154502.790000",
        "154503.818000",
        "154504.798000",
        "154505.781000",
        "154506.857000",
        "154507.819000",
        "154508.818000",
        "154509.811000",
        "154510.808000",
        "154511.808000",
        "154512.811000",
        "154513.792000",
        "154514.800000",
        "154515.810000",
        "154516.822000",
        "154517.786000",
        "154518.804000",
        "154519.794000",
        "154520.782000",
        "154521.820000",
        "154522.794000",
        "154523.818000",
        "154524.863000",
        "154525.812000",
        "154526.774000",
        "154527.792000",
        "154528.784000",
        "154529.817000",
        "154530.796000",
        "154531.807000",
        "154532.799000",
        "154533.802000",
        "154534.811000",
        "154535.819000",
        "154536.859000",
        "154537.827000",
        "154538.801000",
        "154539.834000",
        "154540.830000",
        "154541.806000",
        "154542.816000",
        "154543.858000",
        "154544.813000",
        "154545.818000",
        "154546.780000",
        "154547.817000",
        "154548.782000",
        "154549.817000",
        "154550.868000",
        "154551.818000",
        "154552.783000",
        "154553.811000",
        "154554.790000",
        "154555.799000",
        "154556.862000",
        "154557.800000",
        "154558.848000",
        "154559.842000",
        "154600.787000",
        "154601.791000",
        "154602.800000",
        "154603.782000",
        "154604.817000",
        "154605.796000",
        "154606.796000",
        "154607.806000",
        "154608.810000",
        "154609.807000",
        "154610.796000",
        "154611.798000",
        "154612.788000",
        "154613.806000",
        "154614.802000",
        "154615.778000",
        "154616.855000",
        "154617.800000",
        "154618.835000",
        "154619.794000",
        "154620.817000",
        "154621.781000",
        "154622.796000",
        "154623.792000",
        "154624.842000",
        "154625.854000",
        "154626.813000",
        "154627.818000",
        "154628.905000",
        "154629.862000",
        "154630.821000",
        "154631.773000",
        "154632.791000",
        "154633.780000",
        "154634.814000",
        "154635.843000",
        "154636.797000",
        "154637.809000",
        "154638.805000",
        "154639.827000",
        "154640.778000",
        "154641.812000",
        "154642.827000",
        "154643.778000",
        "154644.846000",
        "154645.797000",
        "154646.766000",
        "154647.797000",
        "154648.850000",
        "154649.805000",
        "154650.780000",
        "154651.795000",
        "154652.836000",
        "154653.806000",
        "154654.787000",
        "154655.809000",
        "154656.793000",
        "154657.878000",
        "154658.824000",
        "154659.818000",
        "154700.800000",
        "154701.793000",
        "154702.837000",
        "154703.826000",
        "154704.806000",
        "154705.802000",
        "154706.855000",
        "154707.844000",
        "154708.787000",
        "154709.815000",
        "154710.784000",
        "154711.789000",
        "154712.805000",
        "154713.799000",
        "154714.824000",
        "154715.830000",
        "154716.793000",
        "154717.814000",
        "154718.820000",
        "154719.819000",
        "154720.808000",
        "154721.792000",
        "154722.808000",
        "154723.782000",
        "154724.788000",
        "154725.792000",
        "154726.783000",
        "154727.818000",
        "154728.783000",
        "154729.800000",
        "154730.790000",
        "154731.808000",
        "154732.755000",
        "154733.780000",
        "154734.804000",
        "154735.809000",
        "154736.830000",
        "154737.789000",
        "154738.796000",
        "154739.791000",
        "154740.805000",
        "154741.800000",
        "154742.808000",
        "154743.822000",
        "154744.802000",
        "154745.830000",
        "154746.824000",
        "154747.799000",
        "154748.828000",
        "154749.800000",
        "154750.814000",
        "154751.789000",
        "154752.805000",
        "154753.805000",
        "154754.818000",
        "154755.808000",
        "154756.805000",
        "154757.822000",
        "154758.805000",
        "154759.877000",
        "154800.801000",
        "154801.799000",
        "154802.796000",
        "154803.785000",
        "154804.798000",
        "154805.810000",
        "154806.812000"
      ],
      "InstanceCreationTime": [
        "154320.025000",
        "154320.842000",
        "154321.783000",
        "154322.866000",
        "154323.816000",
        "154324.828000",
        "154325.802000",
        "154326.797000",
        "154327.797000",
        "154328.813000",
        "154329.802000",
        "154330.793000",
        "154331.810000",
        "154332.833000",
        "154333.820000",
        "154334.807000",
        "154335.814000",
        "154336.808000",
        "154337.819000",
        "154338.847000",
        "154339.790000",
        "154340.791000",
        "154341.792000",
        "154342.810000",
        "154343.840000",
        "154344.828000",
        "154345.785000",
        "154346.837000",
        "154347.847000",
        "154348.792000",
        "154349.808000",
        "154350.815000",
        "154351.811000",
        "154352.780000",
        "154353.819000",
        "154354.814000",
        "154355.797000",
        "154356.813000",
        "154357.801000",
        "154358.796000",
        "154359.823000",
        "154400.825000",
        "154401.833000",
        "154402.821000",
        "154403.803000",
        "154404.821000",
        "154405.792000",
        "154406.780000",
        "154407.796000",
        "154408.867000",
        "154409.821000",
        "154410.808000",
        "154411.807000",
        "154412.805000",
        "154413.798000",
        "154414.798000",
        "154415.798000",
        "154416.844000",
        "154417.769000",
        "154418.777000",
        "154419.858000",
        "154420.829000",
        "154421.795000",
        "154422.795000",
        "154423.840000",
        "154424.793000",
        "154425.779000",
        "154426.806000",
        "154427.839000",
        "154428.817000",
        "154429.791000",
        "154430.793000",
        "154431.802000",
        "154432.802000",
        "154433.795000",
        "154434.802000",
        "154435.797000",
        "154436.780000",
        "154437.786000",
        "154438.831000",
        "154439.796000",
        "154440.769000",
        "154441.833000",
        "154442.775000",
        "154443.798000",
        "154444.802000",
        "154445.844000",
        "154446.840000",
        "154447.811000",
        "154448.864000",
        "154449.809000",
        "154450.811000",
        "154451.780000",
        "154452.799000",
        "154453.779000",
        "154454.808000",
        "154455.796000",
        "154456.789000",
        "154457.794000",
        "154458.797000",
        "154459.814000",
        "154500.849000",
        "154501.791000",
        "154502.790000",
        "154503.818000",
        "154504.798000",
        "154505.781000",
        "154506.857000",
        "154507.819000",
        "154508.818000",
        "154509.811000",
        "154510.808000",
        "154511.808000",
        "154512.811000",
        "154513.792000",
        "154514.800000",
        "154515.810000",
        "154516.822000",
        "154517.786000",
        "154518.804000",
        "154519.794000",
        "154520.782000",
        "154521.820000",
        "154522.794000",
        "154523.818000",
        "154524.863000",
        "154525.812000",
        "154526.774000",
        "154527.792000",
        "154528.784000",
        "154529.817000",
        "154530.796000",
        "154531.807000",
        "154532.799000",
        "154533.802000",
        "154534.811000",
        "154535.819000",
        "154536.859000",
        "154537.827000",
        "154538.801000",
        "154539.834000",
        "154540.830000",
        "154541.806000",
        "154542.816000",
        "154543.858000",
        "154544.813000",
        "154545.818000",
        "154546.780000",
        "154547.817000",
        "154548.782000",
        "154549.817000",
        "154550.868000",
        "154551.818000",
        "154552.783000",
        "154553.811000",
        "154554.790000",
        "154555.799000",
        "154556.862000",
        "154557.800000",
        "154558.848000",
        "154559.842000",
        "154600.787000",
        "154601.791000",
        "154602.800000",
        "154603.782000",
        "154604.817000",
        "154605.796000",
        "154606.796000",
        "154607.806000",
        "154608.810000",
        "154609.807000",
        "154610.796000",
        "154611.798000",
        "154612.788000",
        "154613.806000",
        "154614.802000",
        "154615.778000",
        "154616.855000",
        "154617.800000",
        "154618.835000",
        "154619.794000",
        "154620.817000",
        "154621.781000",
        "154622.796000",
        "154623.792000",
        "154624.842000",
        "154625.854000",
        "154626.813000",
        "154627.818000",
        "154628.905000",
        "154629.862000",
        "154630.821000",
        "154631.773000",
        "154632.791000",
        "154633.780000",
        "154634.814000",
        "154635.843000",
        "154636.797000",
        "154637.809000",
        "154638.805000",
        "154639.827000",
        "154640.778000",
        "154641.812000",
        "154642.827000",
        "154643.778000",
        "154644.846000",
        "154645.797000",
        "154646.766000",
        "154647.797000",
        "154648.850000",
        "154649.805000",
        "154650.780000",
        "154651.795000",
        "154652.836000",
        "154653.806000",
        "154654.787000",
        "154655.809000",
        "154656.793000",
        "154657.878000",
        "154658.824000",
        "154659.818000",
        "154700.800000",
        "154701.793000",
        "154702.837000",
        "154703.826000",
        "154704.806000",
        "154705.802000",
        "154706.855000",
        "154707.844000",
        "154708.787000",
        "154709.815000",
        "154710.784000",
        "154711.789000",
        "154712.805000",
