{
  "AcquisitionMatrixPE": 96,
  "AcquisitionNumber": 1,
  "AcquisitionTime": "15:33:28.855000",
  "BandwidthPerPixelPhaseEncode": 18.939,
  "BaseResolution": 96,
  "BodyPartExamined": "BRAIN",
  "ConsistencyInfo": "N4_VE11C_LATEST_20160120",
  "ConversionSoftware": "dcm2niix",
  "ConversionSoftwareVersion": "v1.0.20171215 (OpenJPEG build) GCC6.3.0",
  "DerivedVendorReportedEchoSpacing": 0.000550011,
  "DeviceSerialNumber": "66112",
  "DwellTime": 2.2e-06,
  "EchoTime": 0.033,
  "EchoTrainLength": 96,
  "EffectiveEchoSpacing": 0.000550011,
  "FlipAngle": 59,
  "ImageOrientationPatientDICOM": [
    0.99927,
    0.0317019,
    -0.0213091,
    -0.0305305,
    0.998116,
    0.0532139
  ],
  "ImageType": [
    "ORIGINAL",
    "PRIMARY",
    "FMRI",
    "NONE",
    "ND",
    "NORM",
    "MOSAIC"
  ],
  "InPlanePhaseEncodingDirectionDICOM": "COL",
  "InstitutionAddress": "Maynard_3_Hanover_NH_US_03755",
  "InstitutionName": "Dartmouth_College_-_PBS",
  "InstitutionalDepartmentName": "Department",
  "MRAcquisitionType": "2D",
  "MagneticFieldStrength": 3,
  "Manufacturer": "Siemens",
  "ManufacturersModelName": "Prisma",
  "Modality": "MR",
  "MultibandAccelerationFactor": 4,
  "PatientPosition": "HFS",
  "PercentPhaseFOV": 100,
  "PhaseEncodingDirection": "j-",
  "PhaseEncodingSteps": 96,
  "PhaseResolution": 1,
  "PixelBandwidth": 2365,
  "ProcedureStepDescription": "Gobbini_Matteo_1038_hyperface",
  "ProtocolName": "func_run-04_task-visualmemory",
  "PulseSequenceDetails": "%SiemensSeq%_ep2d_bold",
  "ReceiveCoilActiveElements": "HEA;HEP",
  "ReceiveCoilName": "Head_32",
  "ReconMatrixPE": 96,
  "RepetitionTime": 1,
  "SAR": 0.0536756,
  "ScanOptions": "FS",
  "ScanningSequence": "EP",
  "SequenceName": "_epfid2d1_96",
  "SequenceVariant": "SK",
  "SeriesDescription": "func_run-04_task-visualmemory",
  "SeriesNumber": 29,
  "ShimSetting": [
    4138,
    -7733,
    -7331,
    756,
    -45,
    -32,
    110,
    113
  ],
  "SliceThickness": 2.5,
  "SliceTiming": [
    0.735,
    0,
    0.49,
    0.08,
    0.57,
    0.1625,
    0.6525,
    0.325,
    0.815,
    0.4075,
    0.8975,
    0.245,
    0.735,
    0,
    0.49,
    0.08,
    0.57,
    0.1625,
    0.6525,
    0.325,
    0.815,
    0.4075,
    0.8975,
    0.245,
    0.735,
    0,
    0.49,
    0.08,
    0.57,
    0.1625,
    0.6525,
    0.325,
    0.815,
    0.4075,
    0.8975,
    0.245,
    0.735,
    0,
    0.49,
    0.08,
    0.57,
    0.1625,
    0.6525,
    0.325,
    0.815,
    0.4075,
    0.8975,
    0.245
  ],
  "SoftwareVersions": "syngo_MR_E11",
  "SpacingBetweenSlices": 2.5,
  "StationName": "AWP66112",
  "TotalReadoutTime": 0.0522511,
  "TxRefAmp": 248.024,
  "dcmmeta_affine": [
    [
      -2.4981753826141357,
      -0.07632629573345184,
      -0.05738994851708412,
      124.91053771972656
    ],
    [
      -0.07925473898649216,
      2.495290756225586,
      0.131311297416687,
      -107.6928482055664
    ],
    [
      -0.05327284336090088,
      -0.1330348402261734,
      2.495889186859131,
      -59.892696380615234
    ],
    [
      0.0,
      0.0,
      0.0,
      1.0
    ]
  ],
  "dcmmeta_reorient_transform": [
    [
      0.0,
      -1.0,
      0.0,
      95.0
    ],
    [
      1.0,
      0.0,
      0.0,
      0.0
    ],
    [
      0.0,
      0.0,
      1.0,
      0.0
    ],
    [
      0.0,
      0.0,
      0.0,
      1.0
    ]
  ],
  "dcmmeta_shape": [
    96,
    96,
    48,
    288
  ],
  "dcmmeta_slice_dim": 2,
  "dcmmeta_version": 0.6,
  "global": {
    "const": {
      "AccessionNumber": "A001353",
      "AcquisitionMatrix": [
        96,
        0,
        0,
        96
      ],
      "AngioFlag": "N",
      "BitsAllocated": 16,
      "BitsStored": 12,
      "BodyPartExamined": "BRAIN",
      "Columns": 672,
      "EchoNumbers": 1,
      "EchoTime": 33.0,
      "EchoTrainLength": 96,
      "FlipAngle": 59.0,
      "HighBit": 11,
      "ImageOrientationPatient": [
        0.99927018890411,
        0.03170189677527,
        -0.0213091367353,
        -0.0305305186008,
        0.99811630798355,
        0.05321393775377
      ],
      "ImagePositionPatient": [
        -815.15210288855,
        -870.82888007496,
        -95.502463580636
      ],
      "ImageType": [
        "ORIGINAL",
        "PRIMARY",
        "FMRI",
        "NONE",
        "ND",
        "NORM",
        "MOSAIC"
      ],
      "ImagedNucleus": "1H",
      "ImagingFrequency": 123.252286,
      "InPlanePhaseEncodingDirection": "COL",
      "MRAcquisitionType": "2D",
      "MagneticFieldStrength": 3.0,
      "Manufacturer": "SIEMENS",
      "ManufacturerModelName": "Prisma",
      "Modality": "MR",
      "NumberOfAverages": 1.0,
      "NumberOfPhaseEncodingSteps": 96,
      "PercentPhaseFieldOfView": 100.0,
      "PercentSampling": 100.0,
      "PerformedProcedureStepStartTime": "145701.742000",
      "PhotometricInterpretation": "MONOCHROME2",
      "PixelBandwidth": 2365.0,
      "PixelRepresentation": 0,
      "PixelSpacing": [
        2.5,
        2.5
      ],
      "PositionReferenceIndicator": "",
      "ProtocolName": "func_run-04_task-visualmemory",
      "RepetitionTime": 1000.0,
      "Rows": 672,
      "SAR": 0.05367561129469,
      "SamplesPerPixel": 1,
      "ScanOptions": "FS",
      "ScanningSequence": "EP",
      "SequenceName": "*epfid2d1_96",
      "SequenceVariant": "SK",
      "SeriesDescription": "func_run-04_task-visualmemory",
      "SeriesNumber": 29,
      "SeriesTime": "153330.069000",
      "SliceLocation": -68.318177224931,
      "SliceThickness": 2.5,
      "SmallestImagePixelValue": 0,
      "SoftwareVersions": "syngo MR E11",
      "SpacingBetweenSlices": 2.4999999309946,
      "SpecificCharacterSet": "ISO_IR 100",
      "StudyID": "2",
      "StudyTime": "145701.690000",
      "TransmitCoilName": "Body",
      "VariableFlipAngleFlag": "N",
      "WindowCenterWidthExplanation": "Algo1",
      "dBdt": 0.0
    },
    "slices": {}
  },
  "time": {
    "samples": {
      "AcquisitionNumber": [
        1,
        2,
        3,
        4,
        5,
        6,
        7,
        8,
        9,
        10,
        11,
        12,
        13,
        14,
        15,
        16,
        17,
        18,
        19,
        20,
        21,
        22,
        23,
        24,
        25,
        26,
        27,
        28,
        29,
        30,
        31,
        32,
        33,
        34,
        35,
        36,
        37,
        38,
        39,
        40,
        41,
        42,
        43,
        44,
        45,
        46,
        47,
        48,
        49,
        50,
        51,
        52,
        53,
        54,
        55,
        56,
        57,
        58,
        59,
        60,
        61,
        62,
        63,
        64,
        65,
        66,
        67,
        68,
        69,
        70,
        71,
        72,
        73,
        74,
        75,
        76,
        77,
        78,
        79,
        80,
        81,
        82,
        83,
        84,
        85,
        86,
        87,
        88,
        89,
        90,
        91,
        92,
        93,
        94,
        95,
        96,
        97,
        98,
        99,
        100,
        101,
        102,
        103,
        104,
        105,
        106,
        107,
        108,
        109,
        110,
        111,
        112,
        113,
        114,
        115,
        116,
        117,
        118,
        119,
        120,
        121,
        122,
        123,
        124,
        125,
        126,
        127,
        128,
        129,
        130,
        131,
        132,
        133,
        134,
        135,
        136,
        137,
        138,
        139,
        140,
        141,
        142,
        143,
        144,
        145,
        146,
        147,
        148,
        149,
        150,
        151,
        152,
        153,
        154,
        155,
        156,
        157,
        158,
        159,
        160,
        161,
        162,
        163,
        164,
        165,
        166,
        167,
        168,
        169,
        170,
        171,
        172,
        173,
        174,
        175,
        176,
        177,
        178,
        179,
        180,
        181,
        182,
        183,
        184,
        185,
        186,
        187,
        188,
        189,
        190,
        191,
        192,
        193,
        194,
        195,
        196,
        197,
        198,
        199,
        200,
        201,
        202,
        203,
        204,
        205,
        206,
        207,
        208,
        209,
        210,
        211,
        212,
        213,
        214,
        215,
        216,
        217,
        218,
        219,
        220,
        221,
        222,
        223,
        224,
        225,
        226,
        227,
        228,
        229,
        230,
        231,
        232,
        233,
        234,
        235,
        236,
        237,
        238,
        239,
        240,
        241,
        242,
        243,
        244,
        245,
        246,
        247,
        248,
        249,
        250,
        251,
        252,
        253,
        254,
        255,
        256,
        257,
        258,
        259,
        260,
        261,
        262,
        263,
        264,
        265,
        266,
        267,
        268,
        269,
        270,
        271,
        272,
        273,
        274,
        275,
        276,
        277,
        278,
        279,
        280,
        281,
        282,
        283,
        284,
        285,
        286,
        287,
        288
      ],
      "AcquisitionTime": [
        "153328.855000",
        "153329.855000",
        "153330.855000",
        "153331.855000",
        "153332.855000",
        "153333.855000",
        "153334.855000",
        "153335.855000",
        "153336.855000",
        "153337.855000",
        "153338.855000",
        "153339.855000",
        "153340.855000",
        "153341.855000",
        "153342.855000",
        "153343.855000",
        "153344.855000",
        "153345.855000",
        "153346.855000",
        "153347.855000",
        "153348.855000",
        "153349.855000",
        "153350.855000",
        "153351.855000",
        "153352.855000",
        "153353.855000",
        "153354.855000",
        "153355.855000",
        "153356.855000",
        "153357.855000",
        "153358.855000",
        "153359.855000",
        "153400.855000",
        "153401.855000",
        "153402.855000",
        "153403.855000",
        "153404.855000",
        "153405.855000",
        "153406.855000",
        "153407.855000",
        "153408.855000",
        "153409.855000",
        "153410.855000",
        "153411.855000",
        "153412.855000",
        "153413.855000",
        "153414.855000",
        "153415.855000",
        "153416.855000",
        "153417.855000",
        "153418.855000",
        "153419.855000",
        "153420.855000",
        "153421.855000",
        "153422.855000",
        "153423.855000",
        "153424.855000",
        "153425.855000",
        "153426.855000",
        "153427.855000",
        "153428.855000",
        "153429.855000",
        "153430.855000",
        "153431.855000",
        "153432.855000",
        "153433.855000",
        "153434.855000",
        "153435.855000",
        "153436.855000",
        "153437.855000",
        "153438.855000",
        "153439.855000",
        "153440.855000",
        "153441.855000",
        "153442.855000",
        "153443.855000",
        "153444.855000",
        "153445.855000",
        "153446.855000",
        "153447.855000",
        "153448.855000",
        "153449.855000",
        "153450.855000",
        "153451.855000",
        "153452.855000",
        "153453.855000",
        "153454.855000",
        "153455.855000",
        "153456.855000",
        "153457.855000",
        "153458.855000",
        "153459.855000",
        "153500.855000",
        "153501.855000",
        "153502.855000",
        "153503.855000",
        "153504.855000",
        "153505.855000",
        "153506.855000",
        "153507.855000",
        "153508.855000",
        "153509.855000",
        "153510.855000",
        "153511.855000",
        "153512.855000",
        "153513.855000",
        "153514.855000",
        "153515.855000",
        "153516.855000",
        "153517.855000",
        "153518.855000",
        "153519.855000",
        "153520.855000",
        "153521.855000",
        "153522.855000",
        "153523.855000",
        "153524.855000",
        "153525.855000",
        "153526.855000",
        "153527.855000",
        "153528.855000",
        "153529.855000",
        "153530.855000",
        "153531.855000",
        "153532.855000",
        "153533.855000",
        "153534.855000",
        "153535.855000",
        "153536.855000",
        "153537.855000",
        "153538.855000",
        "153539.855000",
        "153540.855000",
        "153541.855000",
        "153542.855000",
        "153543.855000",
        "153544.855000",
        "153545.855000",
        "153546.855000",
        "153547.855000",
        "153548.855000",
        "153549.855000",
        "153550.855000",
        "153551.855000",
        "153552.855000",
        "153553.855000",
        "153554.855000",
        "153555.855000",
        "153556.855000",
        "153557.855000",
        "153558.855000",
        "153559.855000",
        "153600.855000",
        "153601.855000",
        "153602.855000",
        "153603.855000",
        "153604.855000",
        "153605.855000",
        "153606.855000",
        "153607.855000",
        "153608.855000",
        "153609.855000",
        "153610.855000",
        "153611.855000",
        "153612.855000",
        "153613.855000",
        "153614.855000",
        "153615.855000",
        "153616.855000",
        "153617.855000",
        "153618.855000",
        "153619.855000",
        "153620.855000",
        "153621.855000",
        "153622.855000",
        "153623.855000",
        "153624.855000",
        "153625.855000",
        "153626.855000",
        "153627.855000",
        "153628.855000",
        "153629.855000",
        "153630.855000",
        "153631.855000",
        "153632.855000",
        "153633.855000",
        "153634.855000",
        "153635.855000",
        "153636.855000",
        "153637.855000",
        "153638.855000",
        "153639.855000",
        "153640.855000",
        "153641.855000",
        "153642.855000",
        "153643.855000",
        "153644.855000",
        "153645.855000",
        "153646.855000",
        "153647.855000",
        "153648.855000",
        "153649.855000",
        "153650.855000",
        "153651.855000",
        "153652.855000",
        "153653.855000",
        "153654.855000",
        "153655.855000",
        "153656.855000",
        "153657.855000",
        "153658.855000",
        "153659.855000",
        "153700.855000",
        "153701.855000",
        "153702.855000",
        "153703.855000",
        "153704.855000",
        "153705.855000",
        "153706.855000",
        "153707.855000",
        "153708.855000",
        "153709.855000",
        "153710.855000",
        "153711.855000",
        "153712.855000",
        "153713.855000",
        "153714.855000",
        "153715.855000",
        "153716.855000",
        "153717.855000",
        "153718.855000",
        "153719.855000",
        "153720.855000",
        "153721.855000",
        "153722.855000",
        "153723.855000",
        "153724.855000",
        "153725.855000",
        "153726.855000",
        "153727.855000",
        "153728.855000",
        "153729.855000",
        "153730.855000",
        "153731.855000",
        "153732.855000",
        "153733.855000",
        "153734.855000",
        "153735.855000",
        "153736.855000",
        "153737.855000",
        "153738.855000",
        "153739.855000",
        "153740.855000",
        "153741.855000",
        "153742.855000",
        "153743.855000",
        "153744.855000",
        "153745.855000",
        "153746.855000",
        "153747.855000",
        "153748.855000",
        "153749.855000",
        "153750.855000",
        "153751.855000",
        "153752.855000",
        "153753.855000",
        "153754.855000",
        "153755.855000",
        "153756.855000",
        "153757.855000",
        "153758.855000",
        "153759.855000",
        "153800.855000",
        "153801.855000",
        "153802.855000",
        "153803.855000",
        "153804.855000",
        "153805.855000",
        "153806.855000",
        "153807.855000",
        "153808.855000",
        "153809.855000",
        "153810.855000",
        "153811.855000",
        "153812.855000",
        "153813.855000",
        "153814.855000",
        "153815.855000"
      ],
      "ContentTime": [
        "153330.072000",
        "153330.853000",
        "153331.840000",
        "153332.822000",
        "153333.849000",
        "153334.901000",
        "153335.853000",
        "153336.840000",
        "153337.876000",
        "153338.923000",
        "153339.864000",
        "153340.954000",
        "153341.889000",
        "153342.831000",
        "153343.843000",
        "153344.844000",
        "153345.848000",
        "153346.876000",
        "153347.858000",
        "153348.837000",
        "153349.910000",
        "153350.852000",
        "153351.854000",
        "153352.852000",
        "153353.834000",
        "153354.826000",
        "153355.858000",
        "153356.887000",
        "153357.848000",
        "153358.906000",
        "153359.828000",
        "153400.841000",
        "153401.855000",
        "153402.839000",
        "153403.836000",
        "153404.826000",
        "153405.837000",
        "153406.848000",
        "153407.832000",
        "153408.845000",
        "153409.906000",
        "153410.919000",
        "153411.846000",
        "153412.852000",
        "153413.855000",
        "153414.863000",
        "153415.856000",
        "153416.816000",
        "153417.852000",
        "153418.839000",
        "153419.852000",
        "153420.883000",
        "153421.838000",
        "153422.861000",
        "153423.880000",
        "153424.858000",
        "153425.833000",
        "153426.853000",
        "153427.810000",
        "153428.831000",
        "153429.920000",
        "153430.851000",
        "153431.842000",
        "153432.823000",
        "153433.816000",
        "153434.828000",
        "153435.833000",
        "153436.892000",
        "153437.867000",
        "153438.853000",
        "153439.857000",
        "153440.842000",
        "153441.876000",
        "153442.875000",
        "153443.845000",
        "153444.855000",
        "153445.830000",
        "153446.826000",
        "153447.851000",
        "153448.855000",
        "153449.886000",
        "153450.872000",
        "153451.829000",
        "153452.870000",
        "153453.843000",
        "153454.838000",
        "153455.928000",
        "153456.850000",
        "153457.849000",
        "153458.860000",
        "153459.822000",
        "153500.850000",
        "153501.849000",
        "153502.877000",
        "153503.851000",
        "153504.847000",
        "153505.867000",
        "153506.853000",
        "153507.822000",
        "153508.842000",
        "153509.844000",
        "153510.867000",
        "153511.889000",
        "153512.920000",
        "153513.807000",
        "153514.852000",
        "153515.859000",
        "153516.891000",
        "153517.888000",
        "153518.872000",
        "153519.849000",
        "153520.884000",
        "153521.856000",
        "153522.862000",
        "153523.854000",
        "153524.832000",
        "153525.844000",
        "153526.897000",
        "153527.830000",
        "153528.881000",
        "153529.859000",
        "153530.851000",
        "153531.869000",
        "153532.860000",
        "153533.835000",
        "153534.842000",
        "153535.845000",
        "153536.862000",
        "153537.856000",
        "153538.870000",
        "153539.884000",
        "153540.911000",
        "153541.845000",
        "153542.853000",
        "153543.827000",
        "153544.847000",
        "153545.874000",
        "153546.865000",
        "153547.880000",
        "153548.890000",
        "153549.887000",
        "153550.859000",
        "153551.893000",
        "153552.854000",
        "153553.844000",
        "153554.846000",
        "153555.875000",
        "153556.848000",
        "153557.880000",
        "153558.869000",
        "153559.843000",
        "153600.831000",
        "153601.858000",
        "153602.846000",
        "153603.852000",
        "153604.866000",
        "153605.858000",
        "153606.837000",
        "153607.863000",
        "153608.863000",
        "153609.845000",
        "153610.838000",
        "153611.828000",
        "153612.867000",
        "153613.849000",
        "153614.847000",
        "153615.838000",
        "153616.875000",
        "153617.871000",
        "153618.868000",
        "153619.871000",
        "153620.856000",
        "153621.838000",
        "153622.859000",
        "153623.860000",
        "153624.844000",
        "153625.859000",
        "153626.835000",
        "153627.866000",
        "153628.833000",
        "153629.849000",
        "153630.851000",
        "153631.916000",
        "153632.832000",
        "153633.851000",
        "153634.841000",
        "153635.800000",
        "153636.835000",
        "153637.842000",
        "153638.924000",
        "153639.858000",
        "153640.856000",
        "153641.851000",
        "153642.870000",
        "153643.869000",
        "153644.882000",
        "153645.831000",
        "153646.852000",
        "153647.831000",
        "153648.838000",
        "153649.851000",
        "153650.847000",
        "153651.838000",
        "153652.851000",
        "153653.848000",
        "153654.860000",
        "153655.845000",
        "153656.816000",
        "153657.902000",
        "153658.868000",
        "153659.897000",
        "153700.867000",
        "153701.897000",
        "153702.853000",
        "153703.844000",
        "153704.842000",
        "153705.843000",
        "153706.875000",
        "153707.856000",
        "153708.843000",
        "153709.893000",
        "153710.891000",
        "153711.861000",
        "153712.851000",
        "153713.856000",
        "153714.857000",
        "153715.854000",
        "153716.850000",
        "153717.836000",
        "153718.851000",
        "153719.925000",
        "153720.868000",
        "153721.845000",
        "153722.861000",
        "153723.845000",
        "153724.852000",
        "153725.873000",
        "153726.858000",
        "153727.834000",
        "153728.850000",
        "153729.853000",
        "153730.848000",
        "153731.840000",
        "153732.870000",
        "153733.857000",
        "153734.830000",
        "153735.844000",
        "153736.835000",
        "153737.887000",
        "153738.838000",
        "153739.851000",
        "153740.843000",
        "153741.872000",
        "153742.835000",
        "153743.839000",
        "153744.847000",
        "153745.847000",
        "153746.844000",
        "153747.843000",
        "153748.858000",
        "153749.886000",
        "153750.852000",
        "153751.869000",
        "153752.857000",
        "153753.852000",
        "153754.865000",
        "153755.828000",
        "153756.848000",
        "153757.870000",
        "153758.803000",
        "153759.846000",
        "153800.865000",
        "153801.903000",
        "153802.863000",
        "153803.839000",
        "153804.850000",
        "153805.885000",
        "153806.851000",
        "153807.860000",
        "153808.866000",
        "153809.833000",
        "153810.873000",
        "153811.852000",
        "153812.865000",
        "153813.896000",
        "153814.840000",
        "153815.851000",
        "153816.881000"
      ],
      "InstanceCreationTime": [
        "153330.072000",
        "153330.853000",
        "153331.840000",
        "153332.822000",
        "153333.849000",
        "153334.901000",
        "153335.853000",
        "153336.840000",
        "153337.876000",
        "153338.923000",
        "153339.864000",
        "153340.954000",
        "153341.889000",
        "153342.831000",
        "153343.843000",
        "153344.844000",
        "153345.848000",
        "153346.876000",
        "153347.858000",
        "153348.837000",
        "153349.910000",
        "153350.852000",
        "153351.854000",
        "153352.852000",
        "153353.834000",
        "153354.826000",
        "153355.858000",
        "153356.887000",
        "153357.848000",
        "153358.906000",
        "153359.828000",
        "153400.841000",
        "153401.855000",
        "153402.839000",
        "153403.836000",
        "153404.826000",
        "153405.837000",
        "153406.848000",
        "153407.832000",
        "153408.845000",
        "153409.906000",
        "153410.919000",
        "153411.846000",
        "153412.852000",
        "153413.855000",
        "153414.863000",
        "153415.856000",
        "153416.816000",
        "153417.852000",
        "153418.839000",
        "153419.852000",
        "153420.883000",
        "153421.838000",
        "153422.861000",
        "153423.880000",
        "153424.858000",
        "153425.833000",
        "153426.853000",
        "153427.810000",
        "153428.831000",
        "153429.920000",
        "153430.851000",
        "153431.842000",
        "153432.823000",
        "153433.816000",
        "153434.828000",
        "153435.833000",
        "153436.892000",
        "153437.867000",
        "153438.853000",
        "153439.857000",
        "153440.842000",
        "153441.876000",
        "153442.875000",
        "153443.845000",
        "153444.855000",
        "153445.830000",
        "153446.826000",
        "153447.851000",
        "153448.855000",
        "153449.886000",
        "153450.872000",
        "153451.829000",
        "153452.870000",
        "153453.843000",
        "153454.838000",
        "153455.928000",
        "153456.850000",
        "153457.849000",
        "153458.860000",
        "153459.822000",
        "153500.850000",
        "153501.849000",
        "153502.877000",
        "153503.851000",
        "153504.847000",
        "153505.867000",
        "153506.853000",
        "153507.822000",
        "153508.842000",
        "153509.844000",
        "153510.867000",
        "153511.889000",
        "153512.920000",
        "153513.807000",
        "153514.852000",
        "153515.859000",
        "153516.891000",
        "153517.888000",
        "153518.872000",
        "153519.849000",
        "153520.884000",
        "153521.856000",
        "153522.862000",
        "153523.854000",
        "153524.832000",
        "153525.844000",
        "153526.897000",
        "153527.830000",
        "153528.881000",
        "153529.859000",
        "153530.851000",
        "153531.869000",
        "153532.860000",
        "153533.835000",
        "153534.842000",
        "153535.845000",
        "153536.862000",
        "153537.856000",
        "153538.870000",
        "153539.884000",
        "153540.911000",
        "153541.845000",
        "153542.853000",
        "153543.827000",
        "153544.847000",
        "153545.874000",
        "153546.865000",
        "153547.880000",
        "153548.890000",
        "153549.887000",
        "153550.859000",
        "153551.893000",
        "153552.854000",
        "153553.844000",
        "153554.846000",
        "153555.875000",
        "153556.848000",
        "153557.880000",
        "153558.869000",
        "153559.843000",
        "153600.831000",
        "153601.858000",
        "153602.846000",
        "153603.852000",
        "153604.866000",
        "153605.858000",
        "153606.837000",
        "153607.863000",
        "153608.863000",
        "153609.845000",
        "153610.838000",
        "153611.828000",
        "153612.867000",
        "153613.849000",
        "153614.847000",
        "153615.838000",
        "153616.875000",
        "153617.871000",
        "153618.868000",
        "153619.871000",
        "153620.856000",
        "153621.838000",
        "153622.859000",
        "153623.860000",
        "153624.844000",
        "153625.859000",
        "153626.835000",
        "153627.866000",
        "153628.833000",
        "153629.849000",
        "153630.851000",
        "153631.916000",
        "153632.832000",
        "153633.851000",
        "153634.841000",
        "153635.800000",
        "153636.835000",
        "153637.842000",
        "153638.924000",
        "153639.858000",
        "153640.856000",
        "153641.851000",
        "153642.870000",
        "153643.869000",
        "153644.882000",
        "153645.831000",
        "153646.852000",
        "153647.831000",
        "153648.838000",
        "153649.851000",
        "153650.847000",
        "153651.838000",
        "153652.851000",
        "153653.848000",
        "153654.860000",
        "153655.845000",
        "153656.816000",
        "153657.902000",
        "153658.868000",
        "153659.897000",
        "153700.867000",
        "153701.897000",
        "153702.853000",
        "153703.844000",
        "153704.842000",
        "153705.843000",
        "153706.875000",
        "153707.856000",
        "153708.843000",
        "153709.893000",
        "153710.891000",
        "153711.861000",
        "153712.851000",
        "153713.856000",
        "153714.857000",
        "153715.854000",
        "153716.850000",
        "153717.836000",
        "153718.851000",
        "153719.925000",
        "153720.868000",
        "153721.845000",
        "153722.861000",
        "153723.845000",
