{
  "AcquisitionMatrixPE": 96,
  "AcquisitionNumber": 1,
  "AcquisitionTime": "15:54:18.375000",
  "BandwidthPerPixelPhaseEncode": 18.939,
  "BaseResolution": 96,
  "BodyPartExamined": "BRAIN",
  "ConsistencyInfo": "N4_VE11C_LATEST_20160120",
  "ConversionSoftware": "dcm2niix",
  "ConversionSoftwareVersion": "v1.0.20171215 (OpenJPEG build) GCC6.3.0",
  "DerivedVendorReportedEchoSpacing": 0.000550011,
  "DeviceSerialNumber": "66112",
  "DwellTime": 2.2e-06,
  "EchoTime": 0.033,
  "EchoTrainLength": 96,
  "EffectiveEchoSpacing": 0.000550011,
  "FlipAngle": 59,
  "ImageOrientationPatientDICOM": [0.99927, 0.0317019, -0.0213091, -0.0305305, 0.998116, 0.0532139],
  "ImageType": [
    "ORIGINAL",
    "PRIMARY",
    "FMRI",
    "NONE",
    "ND",
    "NORM",
    "MOSAIC"
],
  "InPlanePhaseEncodingDirectionDICOM": "COL",
  "InstitutionAddress": "Maynard_3_Hanover_NH_US_03755",
  "InstitutionName": "Dartmouth_College_-_PBS",
  "InstitutionalDepartmentName": "Department",
  "MRAcquisitionType": "2D",
  "MagneticFieldStrength": 3,
  "Manufacturer": "Siemens",
  "ManufacturersModelName": "Prisma",
  "Modality": "MR",
  "MultibandAccelerationFactor": 4,
  "PartialFourier": 1,
  "PatientPosition": "HFS",
  "PercentPhaseFOV": 100,
  "PhaseEncodingDirection": "j-",
  "PhaseEncodingSteps": 96,
  "PhaseResolution": 1,
  "PixelBandwidth": 2365,
  "ProcedureStepDescription": "Gobbini_Matteo_1038_hyperface",
  "ProtocolName": "func_run-08_task-visualmemory",
  "PulseSequenceDetails": "%SiemensSeq%_ep2d_bold",
  "ReceiveCoilActiveElements": "HEA;HEP",
  "ReceiveCoilName": "Head_32",
  "ReconMatrixPE": 96,
  "RepetitionTime": 1,
  "SAR": 0.0536756,
  "ScanOptions": "FS",
  "ScanningSequence": "EP",
  "SequenceName": "_epfid2d1_96",
  "SequenceVariant": "SK",
  "SeriesDescription": "func_run-08_task-visualmemory",
  "SeriesNumber": 57,
  "ShimSetting": [4138, -7733, -7331, 756, -45, -32, 110, 113],
  "SliceThickness": 2.5,
  "SliceTiming": [0.735, 0, 0.49, 0.08, 0.57, 0.1625, 0.6525, 0.325, 0.815, 0.4075, 0.8975, 0.245, 0.735, 0, 0.49, 0.08, 0.57, 0.1625, 0.6525, 0.325, 0.815, 0.4075, 0.8975, 0.245, 0.735, 0, 0.49, 0.08, 0.57, 0.1625, 0.6525, 0.325, 0.815, 0.4075, 0.8975, 0.245, 0.735, 0, 0.49, 0.08, 0.57, 0.1625, 0.6525, 0.325, 0.815, 0.4075, 0.8975, 0.245],
  "SoftwareVersions": "syngo_MR_E11",
  "SpacingBetweenSlices": 2.5,
  "StationName": "AWP66112",
  "TotalReadoutTime": 0.0522511,
  "TxRefAmp": 248.024,
  "dcmmeta_affine": [
    [-2.4981753826141357, -0.07632629573345184, -0.05738994851708412, 124.91053771972656],
    [-0.07925473898649216, 2.495290756225586, 0.131311297416687, -107.6928482055664],
    [-0.05327284336090088, -0.1330348402261734, 2.495889186859131, -59.892696380615234],
    [0.0, 0.0, 0.0, 1.0]
],
  "dcmmeta_reorient_transform": [
    [0.0, -1.0, 0.0, 95.0],
    [1.0, 0.0, 0.0, 0.0],
    [0.0, 0.0, 1.0, 0.0],
    [0.0, 0.0, 0.0, 1.0]
],
  "dcmmeta_shape": [96, 96, 48, 288],
  "dcmmeta_slice_dim": 2,
  "dcmmeta_version": 0.6,
  "global": {
    "const": {
      "AccessionNumber": "A001353",
      "AcquisitionMatrix": [96, 0, 0, 96],
      "AngioFlag": "N",
      "BitsAllocated": 16,
      "BitsStored": 12,
      "BodyPartExamined": "BRAIN",
      "Columns": 672,
      "EchoNumbers": 1,
      "EchoTime": 33.0,
      "EchoTrainLength": 96,
      "FlipAngle": 59.0,
      "HighBit": 11,
      "ImageOrientationPatient": [0.99927018890411, 0.03170189677527, -0.0213091367353, -0.0305305186008, 0.99811630798355, 0.05321393775377],
      "ImagePositionPatient": [-815.15210288855, -870.82888007496, -95.502463580636],
      "ImageType": [
        "ORIGINAL",
        "PRIMARY",
        "FMRI",
        "NONE",
        "ND",
        "NORM",
        "MOSAIC"
],
      "ImagedNucleus": "1H",
      "ImagingFrequency": 123.252294,
      "InPlanePhaseEncodingDirection": "COL",
      "MRAcquisitionType": "2D",
      "MagneticFieldStrength": 3.0,
      "Manufacturer": "SIEMENS",
      "ManufacturerModelName": "Prisma",
      "Modality": "MR",
      "NumberOfAverages": 1.0,
      "NumberOfPhaseEncodingSteps": 96,
      "PercentPhaseFieldOfView": 100.0,
      "PercentSampling": 100.0,
      "PerformedProcedureStepStartTime": "145701.742000",
      "PhotometricInterpretation": "MONOCHROME2",
      "PixelBandwidth": 2365.0,
      "PixelRepresentation": 0,
      "PixelSpacing": [2.5, 2.5],
      "PositionReferenceIndicator": "",
      "ProtocolName": "func_run-08_task-visualmemory",
      "RepetitionTime": 1000.0,
      "Rows": 672,
      "SAR": 0.05367561129469,
      "SamplesPerPixel": 1,
      "ScanOptions": "FS",
      "ScanningSequence": "EP",
      "SequenceName": "*epfid2d1_96",
      "SequenceVariant": "SK",
      "SeriesDescription": "func_run-08_task-visualmemory",
      "SeriesNumber": 57,
      "SeriesTime": "155420.058000",
      "SliceLocation": -68.318177224931,
      "SliceThickness": 2.5,
      "SmallestImagePixelValue": 0,
      "SoftwareVersions": "syngo MR E11",
      "SpacingBetweenSlices": 2.4999999309946,
      "SpecificCharacterSet": "ISO_IR 100",
      "StudyID": "2",
      "StudyTime": "145701.690000",
      "TransmitCoilName": "Body",
      "VariableFlipAngleFlag": "N",
      "WindowCenterWidthExplanation": "Algo1",
      "dBdt": 0.0},
    "slices": {}
  },
  "time": {
    "samples": {
      "AcquisitionNumber": [1, 2, 3, 4, 5, 6, 7, 8, 9, 10, 11, 12, 13, 14, 15, 16, 17, 18, 19, 20, 21, 22, 23, 24, 25, 26, 27, 28, 29, 30, 31, 32, 33, 34, 35, 36, 37, 38, 39, 40, 41, 42, 43, 44, 45, 46, 47, 48, 49, 50, 51, 52, 53, 54, 55, 56, 57, 58, 59, 60, 61, 62, 63, 64, 65, 66, 67, 68, 69, 70, 71, 72, 73, 74, 75, 76, 77, 78, 79, 80, 81, 82, 83, 84, 85, 86, 87, 88, 89, 90, 91, 92, 93, 94, 95, 96, 97, 98, 99, 100, 101, 102, 103, 104, 105, 106, 107, 108, 109, 110, 111, 112, 113, 114, 115, 116, 117, 118, 119, 120, 121, 122, 123, 124, 125, 126, 127, 128, 129, 130, 131, 132, 133, 134, 135, 136, 137, 138, 139, 140, 141, 142, 143, 144, 145, 146, 147, 148, 149, 150, 151, 152, 153, 154, 155, 156, 157, 158, 159, 160, 161, 162, 163, 164, 165, 166, 167, 168, 169, 170, 171, 172, 173, 174, 175, 176, 177, 178, 179, 180, 181, 182, 183, 184, 185, 186, 187, 188, 189, 190, 191, 192, 193, 194, 195, 196, 197, 198, 199, 200, 201, 202, 203, 204, 205, 206, 207, 208, 209, 210, 211, 212, 213, 214, 215, 216, 217, 218, 219, 220, 221, 222, 223, 224, 225, 226, 227, 228, 229, 230, 231, 232, 233, 234, 235, 236, 237, 238, 239, 240, 241, 242, 243, 244, 245, 246, 247, 248, 249, 250, 251, 252, 253, 254, 255, 256, 257, 258, 259, 260, 261, 262, 263, 264, 265, 266, 267, 268, 269, 270, 271, 272, 273, 274, 275, 276, 277, 278, 279, 280, 281, 282, 283, 284, 285, 286, 287, 288],
      "AcquisitionTime": ["155418.375000", "155419.375000", "155420.375000", "155421.375000", "155422.375000", "155423.375000", "155424.375000", "155425.375000", "155426.375000", "155427.375000", "155428.375000", "155429.375000", "155430.375000", "155431.375000", "155432.375000", "155433.375000", "155434.375000", "155435.375000", "155436.375000", "155437.375000", "155438.375000", "155439.375000", "155440.375000", "155441.375000", "155442.375000", "155443.375000", "155444.375000", "155445.375000", "155446.375000", "155447.375000", "155448.375000", "155449.375000", "155450.375000", "155451.375000", "155452.375000", "155453.375000", "155454.375000", "155455.375000", "155456.375000", "155457.375000", "155458.375000", "155459.375000", "155500.375000", "155501.375000", "155502.375000", "155503.375000", "155504.375000", "155505.375000", "155506.375000", "155507.375000", "155508.375000", "155509.375000", "155510.375000", "155511.375000", "155512.375000", "155513.375000", "155514.375000", "155515.375000", "155516.375000", "155517.375000", "155518.375000", "155519.375000", "155520.375000", "155521.375000", "155522.375000", "155523.375000", "155524.375000", "155525.375000", "155526.375000", "155527.375000", "155528.375000", "155529.375000", "155530.375000", "155531.375000", "155532.375000", "155533.375000", "155534.375000", "155535.375000", "155536.375000", "155537.375000", "155538.375000", "155539.375000", "155540.375000", "155541.375000", "155542.375000", "155543.375000", "155544.375000", "155545.375000", "155546.375000", "155547.375000", "155548.375000", "155549.375000", "155550.375000", "155551.375000", "155552.375000", "155553.375000", "155554.375000", "155555.375000", "155556.375000", "155557.375000", "155558.375000", "155559.375000", "155600.375000", "155601.375000", "155602.375000", "155603.375000", "155604.375000", "155605.375000", "155606.375000", "155607.375000", "155608.375000", "155609.375000", "155610.375000", "155611.375000", "155612.375000", "155613.375000", "155614.375000", "155615.375000", "155616.375000", "155617.375000", "155618.375000", "155619.375000", "155620.375000", "155621.375000", "155622.375000", "155623.375000", "155624.375000", "155625.375000", "155626.375000", "155627.375000", "155628.375000", "155629.375000", "155630.375000", "155631.375000", "155632.375000", "155633.375000", "155634.375000", "155635.375000", "155636.375000", "155637.375000", "155638.375000", "155639.375000", "155640.375000", "155641.375000", "155642.375000", "155643.375000", "155644.375000", "155645.375000", "155646.375000", "155647.375000", "155648.375000", "155649.375000", "155650.375000", "155651.375000", "155652.375000", "155653.375000", "155654.375000", "155655.375000", "155656.375000", "155657.375000", "155658.375000", "155659.375000", "155700.375000", "155701.375000", "155702.375000", "155703.375000", "155704.375000", "155705.375000", "155706.375000", "155707.375000", "155708.375000", "155709.375000", "155710.375000", "155711.375000", "155712.375000", "155713.375000", "155714.375000", "155715.375000", "155716.375000", "155717.375000", "155718.375000", "155719.375000", "155720.375000", "155721.375000", "155722.375000", "155723.375000", "155724.375000", "155725.375000", "155726.375000", "155727.375000", "155728.375000", "155729.375000", "155730.375000", "155731.375000", "155732.375000", "155733.375000", "155734.375000", "155735.375000", "155736.375000", "155737.375000", "155738.375000", "155739.375000", "155740.375000", "155741.375000", "155742.375000", "155743.375000", "155744.375000", "155745.375000", "155746.375000", "155747.375000", "155748.375000", "155749.375000", "155750.375000", "155751.375000", "155752.375000", "155753.375000", "155754.375000", "155755.375000", "155756.375000", "155757.375000", "155758.375000", "155759.375000", "155800.375000", "155801.375000", "155802.375000", "155803.375000", "155804.375000", "155805.375000", "155806.375000", "155807.375000", "155808.375000", "155809.375000", "155810.375000", "155811.375000", "155812.375000", "155813.375000", "155814.375000", "155815.375000", "155816.375000", "155817.375000", "155818.375000", "155819.375000", "155820.375000", "155821.375000", "155822.375000", "155823.375000", "155824.375000", "155825.375000", "155826.375000", "155827.375000", "155828.375000", "155829.375000", "155830.375000", "155831.375000", "155832.375000", "155833.375000", "155834.375000", "155835.375000", "155836.375000", "155837.375000", "155838.375000", "155839.375000", "155840.375000", "155841.375000", "155842.375000", "155843.375000", "155844.375000", "155845.375000", "155846.375000", "155847.375000", "155848.375000", "155849.375000", "155850.375000", "155851.375000", "155852.375000", "155853.375000", "155854.375000", "155855.375000", "155856.375000", "155857.375000", "155858.375000", "155859.375000", "155900.375000", "155901.375000", "155902.375000", "155903.375000", "155904.375000", "155905.375000"],
      "ContentTime": ["155420.061000", "155420.925000", "155421.936000", "155422.976000", "155423.896000", "155424.886000", "155425.894000", "155426.879000", "155427.887000", "155428.896000", "155429.910000", "155430.923000", "155431.900000", "155432.882000", "155433.874000", "155434.876000", "155435.888000", "155436.855000", "155437.901000", "155438.935000", "155439.898000", "155440.872000", "155441.913000", "155442.895000", "155443.878000", "155444.894000", "155445.890000", "155446.882000", "155447.882000", "155448.913000", "155449.889000", "155450.867000", "155451.884000", "155452.889000", "155453.876000", "155454.873000", "155455.882000", "155456.905000", "155457.867000", "155458.901000", "155459.862000", "155500.934000", "155501.929000", "155502.880000", "155503.855000", "155504.937000", "155505.890000", "155506.885000", "155507.880000", "155508.892000", "155509.878000", "155510.928000", "155511.911000", "155512.886000", "155513.892000", "155514.905000", "155515.924000", "155516.862000", "155517.902000", "155518.875000", "155519.859000", "155520.946000", "155521.882000", "155522.879000", "155523.896000", "155524.875000", "155525.936000", "155526.888000", "155527.889000", "155528.918000", "155529.886000", "155530.876000", "155531.874000", "155532.890000", "155533.884000", "155534.891000", "155535.895000", "155536.855000", "155537.942000", "155538.901000", "155539.908000", "155540.880000", "155541.901000", "155542.868000", "155543.905000", "155544.923000", "155545.872000", "155546.887000", "155547.888000", "155548.881000", "155549.896000", "155550.870000", "155551.883000", "155552.871000", "155553.877000", "155554.888000", "155555.908000", "155556.878000", "155557.877000", "155558.871000", "155559.879000", "155600.887000", "155601.903000", "155602.923000", "155603.930000", "155604.915000", "155605.932000", "155606.905000", "155607.883000", "155608.897000", "155609.899000", "155610.900000", "155611.889000", "155612.912000", "155613.907000", "155614.885000", "155615.910000", "155616.919000", "155617.893000", "155618.885000", "155619.889000", "155620.888000", "155621.958000", "155622.897000", "155623.878000", "155624.889000", "155625.870000", "155626.876000", "155627.879000", "155628.955000", "155629.902000", "155630.898000", "155631.898000", "155632.904000", "155633.888000", "155634.882000", "155635.883000", "155636.929000", "155637.880000", "155638.899000", "155639.914000", "155640.938000", "155641.896000", "155642.902000", "155643.948000", "155644.940000", "155645.899000", "155646.929000", "155647.942000", "155648.888000", "155649.931000", "155650.894000", "155651.854000", "155652.891000", "155653.940000", "155654.902000", "155655.903000", "155656.878000", "155657.919000", "155658.926000", "155659.936000", "155700.929000", "155701.894000", "155702.923000", "155703.882000", "155704.880000", "155705.910000", "155706.953000", "155707.884000", "155708.898000", "155709.928000", "155710.915000", "155711.876000", "155712.949000", "155713.836000", "155714.881000", "155715.905000", "155716.896000", "155717.905000", "155718.898000", "155719.915000", "155720.891000", "155721.900000", "155722.890000", "155723.907000", "155724.877000", "155725.891000", "155726.900000", "155727.857000", "155728.886000", "155729.881000", "155730.881000", "155731.905000", "155732.867000", "155733.884000", "155734.887000", "155735.907000", "155736.899000", "155737.890000", "155738.864000", "155739.888000", "155740.877000", "155741.942000", "155742.931000", "155743.868000", "155744.908000", "155745.889000", "155746.897000", "155747.905000", "155748.871000", "155749.959000", "155750.867000", "155751.919000", "155752.869000", "155753.936000", "155754.881000", "155755.921000", "155756.885000", "155757.920000", "155758.898000", "155759.897000", "155800.889000", "155801.877000", "155802.877000", "155803.864000", "155804.879000", "155805.903000", "155806.893000", "155807.878000", "155808.897000", "155809.910000", "155810.891000", "155811.881000", "155812.884000", "155813.933000", "155814.878000", "155815.883000", "155816.921000", "155817.897000", "155818.914000", "155819.912000", "155820.887000", "155821.882000", "155822.865000", "155823.899000", "155824.934000", "155825.901000", "155826.886000", "155827.897000", "155828.876000", "155829.861000", "155830.909000", "155831.879000", "155832.887000", "155833.872000", "155834.889000", "155835.874000", "155836.895000", "155837.901000", "155838.876000", "155839.892000", "155840.892000", "155841.904000", "155842.900000", "155843.895000", "155844.913000", "155845.963000", "155846.892000", "155847.865000", "155848.891000", "155849.885000", "155850.890000", "155851.947000", "155852.877000", "155853.875000", "155854.887000", "155855.882000", "155856.871000", "155857.880000", "155858.899000", "155859.889000", "155900.872000", "155901.875000", "155902.893000", "155903.886000", "155904.904000", "155905.934000", "155906.914000"],
      "InstanceCreationTime": ["155420.061000", "155420.925000", "155421.936000", "155422.976000", "155423.896000", "155424.886000", "155425.894000", "155426.879000", "155427.887000", "155428.896000", "155429.910000", "155430.923000", "155431.900000", "155432.882000", "155433.874000", "155434.876000", "155435.888000", "155436.855000", "155437.901000", "155438.935000", "155439.898000", "155440.872000", "155441.913000", "155442.895000", "155443.878000", "155444.894000", "155445.890000", "155446.882000", "155447.882000", "155448.913000", "155449.889000", "155450.867000", "155451.884000", "155452.889000", "155453.876000", "155454.873000", "155455.882000", "155456.905000", "155457.867000", "155458.901000", "155459.862000", "155500.934000", "155501.929000", "155502.880000", "155503.855000", "155504.937000", "155505.890000", "155506.885000", "155507.880000", "155508.892000", "155509.878000", "155510.928000", "155511.911000", "155512.886000", "155513.892000", "155514.905000", "155515.924000", "155516.862000", "155517.902000", "155518.875000", "155519.859000", "155520.946000", "155521.882000", "155522.879000", "155523.896000", "155524.875000", "155525.936000", "155526.888000", "155527.889000", "155528.918000", "155529.886000", "155530.876000", "155531.874000", "155532.890000", "155533.884000", "155534.891000", "155535.895000", "155536.855000", "155537.942000", "155538.901000", "155539.908000", "155540.880000", "155541.901000", "155542.868000", "155543.905000", "155544.923000", "155545.872000", "155546.887000", "155547.888000", "155548.881000", "155549.896000", "155550.870000", "155551.883000", "155552.871000", "155553.877000", "155554.888000", "155555.908000", "155556.878000", "155557.877000", "155558.871000", "155559.879000", "155600.887000", "155601.903000", "155602.923000", "155603.930000", "155604.915000", "155605.932000", "155606.905000", "155607.883000", "155608.897000", "155609.899000", "155610.900000", "155611.889000", "155612.912000", "155613.907000", "155614.885000", "155615.910000", "155616.919000", "155617.893000", "155618.885000", "155619.889000", "155620.888000", "155621.958000", "155622.897000", "155623.878000", "155624.889000", "155625.870000", "155626.876000", "155627.879000", "155628.955000", "155629.902000", "155630.898000", "155631.898000", "155632.904000", "155633.888000", "155634.882000", "155635.883000", "155636.929000", "155637.880000", "155638.899000", "155639.914000", "155640.938000", "155641.896000", "155642.902000", "155643.948000", "155644.940000", "155645.899000", "155646.929000", "155647.942000", "155648.888000", "155649.931000", "155650.894000", "155651.854000", "155652.891000", "155653.940000", "155654.902000", "155655.903000", "155656.878000", "155657.919000", "155658.926000", "155659.936000", "155700.929000", "155701.894000", "155702.923000", "155703.882000", "155704.880000", "155705.910000", "155706.953000", "155707.884000", "155708.898000", "155709.928000", "155710.915000", "155711.876000", "155712.949000", "155713.836000", "155714.881000", "155715.905000", "155716.896000", "155717.905000", "155718.898000", "155719.915000", "155720.891000", "155721.900000", "155722.890000", "155723.907000", "155724.877000", "155725.891000", "155726.900000", "155727.857000", "155728.886000", "155729.881000", "155730.881000", "155731.905000", "155732.867000", "155733.884000", "155734.887000", "155735.907000", "155736.899000", "155737.890000", "155738.864000", "155739.888000", "155740.877000", "155741.942000", "155742.931000", "155743.868000", "155744.908000", "155745.889000", "155746.897000", "155747.905000", "155748.871000", "155749.959000", "155750.867000", "155751.919000", "155752.869000", "155753.936000", "155754.881000", "155755.921000", "155756.885000", "155757.920000", "155758.898000", "155759.897000", "155800.889000", "155801.877000", "155802.877000", "155803.864000", "155804.879000", "155805.903000", "155806.893000", "155807.878000", "155808.897000", "155809.910000", "155810.891000", "155811.881000", "155812.884000", "155813.933000", "155814.878000", "155815.883000", "155816.921000", "155817.897000", "155818.914000", "155819.912000", "155820.887000", "155821.882000", "155822.865000", "155823.899000", "155824.934000", "155825.901000", "155826.886000", "155827.897000", "155828.876000", "155829.861000", "155830.909000", "155831.879000", "155832.887000", "155833.872000", "155834.889000", "155835.874000", "155836.895000", "155837.901000", "155838.876000", "155839.892000", "155840.892000", "155841.904000", "155842.900000", "155843.895000", "155844.913000", "155845.963000", "155846.892000", "155847.865000", "155848.891000", "155849.885000", "155850.890000", "155851.947000", "155852.877000", "155853.875000", "155854.887000", "155855.882000", "155856.871000", "155857.880000", "155858.899000", "155859.889000", "155900.872000", "155901.875000", "155902.893000", "155903.886000", "155904.904000", "155905.934000", "155906.914000"],
      "InstanceNumber": [1, 2, 3, 4, 5, 6, 7, 8, 9, 10, 11, 12, 13, 14, 15, 16, 17, 18, 19, 20, 21, 22, 23, 24, 25, 26, 27, 28, 29, 30, 31, 32, 33, 34, 35, 36, 37, 38, 39, 40, 41, 42, 43, 44, 45, 46, 47, 48, 49, 50, 51, 52, 53, 54, 55, 56, 57, 58, 59, 60, 61, 62, 63, 64, 65, 66, 67, 68, 69, 70, 71, 72, 73, 74, 75, 76, 77, 78, 79, 80, 81, 82, 83, 84, 85, 86, 87, 88, 89, 90, 91, 92, 93, 94, 95, 96, 97, 98, 99, 100, 101, 102, 103, 104, 105, 106, 107, 108, 109, 110, 111, 112, 113, 114, 115, 116, 117, 118, 119, 120, 121, 122, 123, 124, 125, 126, 127, 128, 129, 130, 131, 132, 133, 134, 135, 136, 137, 138, 139, 140, 141, 142, 143, 144, 145, 146, 147, 148, 149, 150, 151, 152, 153, 154, 155, 156, 157, 158, 159, 160, 161, 162, 163, 164, 165, 166, 167, 168, 169, 170, 171, 172, 173, 174, 175, 176, 177, 178, 179, 180, 181, 182, 183, 184, 185, 186, 187, 188, 189, 190, 191, 192, 193, 194, 195, 196, 197, 198, 199, 200, 201, 202, 203, 204, 205, 206, 207, 208, 209, 210, 211, 212, 213, 214, 215, 216, 217, 218, 219, 220, 221, 222, 223, 224, 225, 226, 227, 228, 229, 230, 231, 232, 233, 234, 235, 236, 237, 238, 239, 240, 241, 242, 243, 244, 245, 246, 247, 248, 249, 250, 251, 252, 253, 254, 255, 256, 257, 258, 259, 260, 261, 262, 263, 264, 265, 266, 267, 268, 269, 270, 271, 272, 273, 274, 275, 276, 277, 278, 279, 280, 281, 282, 283, 284, 285, 286, 287, 288],
      "LargestImagePixelValue": [1119, 896, 748, 723, 783, 695, 701, 790, 673, 712, 750, 695, 722, 744, 748, 785, 997, 822, 695, 674, 726, 733, 728, 726, 759, 746, 905, 852, 746, 685, 704, 708, 731, 721, 751, 766, 828, 774, 735, 708, 713, 725, 718, 754, 750, 782, 980, 850, 703, 675, 721, 702, 760, 763, 792, 921, 750, 731, 704, 774, 724, 698, 790, 814, 805, 691, 718, 710, 696, 766, 780, 769, 793, 759, 748, 671, 695, 724, 725, 742, 725, 746, 717, 742, 715, 681, 736, 719, 781, 1105, 756, 701, 841, 739, 744, 738, 770, 677, 737, 699, 691, 745, 760, 742, 745, 714, 706, 828, 913, 783, 682, 684, 733, 703, 746, 696, 701, 718, 720, 776, 757, 786, 794, 740, 697, 704, 673, 737, 707, 726, 740, 713, 719, 753, 954, 788, 688, 676, 695, 930, 688, 729, 691, 740, 748, 713, 747, 796, 940, 794, 782, 817, 669, 717, 726, 734, 764, 705, 696, 820, 1017, 857, 722, 701, 744, 680, 681, 664, 715, 693, 909, 727, 736, 766, 757, 725, 736, 704, 702, 726, 700, 767, 958, 983, 784, 750, 765, 679, 725, 704, 686, 731, 738, 755, 728, 755, 722, 1049, 853, 747, 670, 682, 728, 688, 719, 714, 751, 729, 718, 700, 724, 1010, 848, 757, 708, 757, 710, 730, 733, 729, 753, 715, 683, 694, 739, 731, 823, 1063, 787, 681, 720, 712, 714, 746, 726, 697, 794, 864, 728, 696, 708, 682, 693, 699, 1134, 1114, 818, 782, 696, 684, 692, 693, 729, 1253, 761, 699, 697, 877, 964, 959, 829, 807, 807, 697, 698, 719, 706, 721, 711, 706, 747, 732, 748, 705, 710, 712, 695, 778, 679, 726, 973, 896, 787, 706, 725, 705, 753, 730],
      "WindowCenter": [363.0, 361.0, 360.0, 359.0, 360.0, 359.0, 359.0, 360.0, 358.0, 359.0, 359.0, 358.0, 359.0, 359.0, 359.0, 360.0, 362.0, 360.0, 359.0, 358.0, 359.0, 359.0, 359.0, 359.0, 360.0, 360.0, 361.0, 361.0, 360.0, 359.0, 359.0, 360.0, 360.0, 360.0, 360.0, 360.0, 360.0, 360.0, 360.0, 360.0, 360.0, 360.0, 359.0, 360.0, 359.0, 360.0, 362.0, 361.0, 359.0, 359.0, 360.0, 359.0, 360.0, 360.0, 360.0, 361.0, 359.0, 359.0, 359.0, 359.0, 359.0, 359.0, 360.0, 361.0, 360.0, 359.0, 359.0, 359.0, 359.0, 359.0, 360.0, 359.0, 360.0, 360.0, 360.0, 359.0, 360.0, 360.0, 360.0, 360.0, 360.0, 360.0, 359.0, 359.0, 359.0, 359.0, 359.0, 360.0, 359.0, 362.0, 359.0, 359.0, 360.0, 359.0, 359.0, 359.0, 359.0, 358.0, 359.0, 358.0, 358.0, 359.0, 359.0, 359.0, 359.0, 359.0, 359.0, 360.0, 361.0, 359.0, 359.0, 358.0, 360.0, 359.0, 360.0, 360.0, 360.0, 360.0, 360.0, 360.0, 360.0, 360.0, 360.0, 360.0, 359.0, 359.0, 359.0, 360.0, 359.0, 360.0, 360.0, 360.0, 360.0, 360.0, 362.0, 360.0, 359.0, 359.0, 360.0, 363.0, 359.0, 360.0, 359.0, 359.0, 359.0, 359.0, 360.0, 360.0, 361.0, 360.0, 360.0, 360.0, 358.0, 359.0, 359.0, 359.0, 359.0, 359.0, 359.0, 360.0, 361.0, 360.0, 359.0, 359.0, 359.0, 359.0, 360.0, 360.0, 361.0, 361.0, 363.0, 360.0, 359.0, 359.0, 359.0, 358.0, 359.0, 358.0, 359.0, 359.0, 359.0, 360.0, 361.0, 361.0, 359.0, 359.0, 359.0, 358.0, 359.0, 359.0, 358.0, 359.0, 359.0, 359.0, 359.0, 359.0, 359.0, 362.0, 360.0, 359.0, 358.0, 358.0, 359.0, 358.0, 358.0, 358.0, 359.0, 359.0, 359.0, 358.0, 359.0, 362.0, 360.0, 359.0, 358.0, 359.0, 359.0, 359.0, 359.0, 359.0, 360.0, 360.0, 359.0, 360.0, 360.0, 360.0, 361.0, 362.0, 359.0, 359.0, 359.0, 359.0, 359.0, 359.0, 359.0, 359.0, 361.0, 361.0, 360.0, 360.0, 360.0, 360.0, 361.0, 361.0, 364.0, 363.0, 360.0, 359.0, 359.0, 359.0, 360.0, 360.0, 361.0, 365.0, 360.0, 359.0, 359.0, 361.0, 361.0, 360.0, 359.0, 359.0, 359.0, 357.0, 357.0, 358.0, 358.0, 358.0, 358.0, 358.0, 359.0, 359.0, 359.0, 358.0, 359.0, 359.0, 359.0, 359.0, 358.0, 359.0, 361.0, 361.0, 359.0, 358.0, 358.0, 358.0, 359.0, 359.0],
      "WindowWidth": [775.0, 772.0, 770.0, 769.0, 770.0, 769.0, 769.0, 770.0, 768.0, 769.0, 769.0, 768.0, 769.0, 769.0, 769.0, 770.0, 773.0, 770.0, 769.0, 768.0, 769.0, 769.0, 769.0, 769.0, 770.0, 770.0, 771.0, 771.0, 770.0, 769.0, 769.0, 770.0, 770.0, 770.0, 770.0, 770.0, 770.0, 771.0, 770.0, 770.0, 770.0, 770.0, 769.0, 770.0, 769.0, 770.0, 773.0, 771.0, 769.0, 769.0, 770.0, 769.0, 770.0, 770.0, 770.0, 772.0, 769.0, 768.0, 768.0, 769.0, 769.0, 769.0, 770.0, 771.0, 771.0, 769.0, 768.0, 769.0, 769.0, 769.0, 770.0, 769.0, 770.0, 771.0, 770.0, 769.0, 770.0, 770.0, 770.0, 770.0, 770.0, 770.0, 769.0, 769.0, 769.0, 769.0, 769.0, 770.0, 769.0, 772.0, 768.0, 769.0, 770.0, 768.0, 769.0, 769.0, 769.0, 768.0, 768.0, 767.0, 767.0, 768.0, 768.0, 768.0, 768.0, 768.0, 768.0, 771.0, 771.0, 769.0, 769.0, 768.0, 769.0, 769.0, 770.0, 770.0, 770.0, 770.0, 770.0, 771.0, 770.0, 770.0, 770.0, 770.0, 769.0, 769.0, 769.0, 769.0, 769.0, 770.0, 770.0, 770.0, 770.0, 771.0, 773.0, 771.0, 769.0, 769.0, 770.0, 774.0, 770.0, 770.0, 769.0, 769.0, 769.0, 769.0, 770.0, 771.0, 772.0, 771.0, 770.0, 770.0, 768.0, 768.0, 768.0, 768.0, 768.0, 768.0, 768.0, 770.0, 771.0, 770.0, 768.0, 768.0, 769.0, 769.0, 770.0, 770.0, 773.0, 773.0, 775.0, 770.0, 768.0, 768.0, 768.0, 767.0, 768.0, 767.0, 768.0, 769.0, 769.0, 770.0, 772.0, 772.0, 769.0, 769.0, 769.0, 768.0, 768.0, 768.0, 767.0, 768.0, 768.0, 769.0, 768.0, 769.0, 768.0, 772.0, 769.0, 768.0, 767.0, 767.0, 768.0, 767.0, 767.0, 767.0, 768.0, 768.0, 768.0, 768.0, 768.0, 772.0, 770.0, 769.0, 767.0, 768.0, 768.0, 768.0, 768.0, 768.0, 770.0, 770.0, 769.0, 770.0, 770.0, 770.0, 772.0, 773.0, 769.0, 769.0, 769.0, 768.0, 768.0, 769.0, 769.0, 769.0, 771.0, 772.0, 770.0, 770.0, 770.0, 771.0, 773.0, 773.0, 776.0, 774.0, 770.0, 769.0, 769.0, 769.0, 770.0, 770.0, 772.0, 778.0, 769.0, 768.0, 769.0, 771.0, 771.0, 770.0, 769.0, 767.0, 768.0, 765.0, 765.0, 766.0, 767.0, 766.0, 767.0, 767.0, 768.0, 768.0, 768.0, 767.0, 768.0, 768.0, 768.0, 769.0, 768.0, 769.0, 771.0, 771.0, 769.0, 768.0, 767.0, 767.0, 768.0, 769.0]
    },
    "slices": {}
  }
}