{
  "AcquisitionMatrixPE": 96,
  "AcquisitionNumber": 1,
  "AcquisitionTime": "15:38:46.460000",
  "BandwidthPerPixelPhaseEncode": 18.939,
  "BaseResolution": 96,
  "BodyPartExamined": "BRAIN",
  "ConsistencyInfo": "N4_VE11C_LATEST_20160120",
  "ConversionSoftware": "dcm2niix",
  "ConversionSoftwareVersion": "v1.0.20171215 (OpenJPEG build) GCC6.3.0",
  "DerivedVendorReportedEchoSpacing": 0.000550011,
  "DeviceSerialNumber": "66112",
  "DwellTime": 2.2e-06,
  "EchoTime": 0.033,
  "EchoTrainLength": 96,
  "EffectiveEchoSpacing": 0.000550011,
  "FlipAngle": 59,
  "ImageOrientationPatientDICOM": [0.99927, 0.0317019, -0.0213091, -0.0305305, 0.998116, 0.0532139],
  "ImageType": [
    "ORIGINAL",
    "PRIMARY",
    "FMRI",
    "NONE",
    "ND",
    "NORM",
    "MOSAIC"
],
  "InPlanePhaseEncodingDirectionDICOM": "COL",
  "InstitutionAddress": "Maynard_3_Hanover_NH_US_03755",
  "InstitutionName": "Dartmouth_College_-_PBS",
  "InstitutionalDepartmentName": "Department",
  "MRAcquisitionType": "2D",
  "MagneticFieldStrength": 3,
  "Manufacturer": "Siemens",
  "ManufacturersModelName": "Prisma",
  "Modality": "MR",
  "MultibandAccelerationFactor": 4,
  "PartialFourier": 1,
  "PatientPosition": "HFS",
  "PercentPhaseFOV": 100,
  "PhaseEncodingDirection": "j-",
  "PhaseEncodingSteps": 96,
  "PhaseResolution": 1,
  "PixelBandwidth": 2365,
  "ProcedureStepDescription": "Gobbini_Matteo_1038_hyperface",
  "ProtocolName": "func_run-05_task-localizer",
  "PulseSequenceDetails": "%SiemensSeq%_ep2d_bold",
  "ReceiveCoilActiveElements": "HEA;HEP",
  "ReceiveCoilName": "Head_32",
  "ReconMatrixPE": 96,
  "RepetitionTime": 1,
  "SAR": 0.0535473,
  "ScanOptions": "FS",
  "ScanningSequence": "EP",
  "SequenceName": "_epfid2d1_96",
  "SequenceVariant": "SK",
  "SeriesDescription": "func_run-05_task-localizer",
  "SeriesNumber": 36,
  "ShimSetting": [4138, -7733, -7331, 756, -45, -32, 110, 113],
  "SliceThickness": 2.5,
  "SliceTiming": [0.735, 0, 0.49, 0.0825, 0.5725, 0.1625, 0.6525, 0.3275, 0.8175, 0.4075, 0.8975, 0.245, 0.735, 0, 0.49, 0.0825, 0.5725, 0.1625, 0.6525, 0.3275, 0.8175, 0.4075, 0.8975, 0.245, 0.735, 0, 0.49, 0.0825, 0.5725, 0.1625, 0.6525, 0.3275, 0.8175, 0.4075, 0.8975, 0.245, 0.735, 0, 0.49, 0.0825, 0.5725, 0.1625, 0.6525, 0.3275, 0.8175, 0.4075, 0.8975, 0.245],
  "SoftwareVersions": "syngo_MR_E11",
  "SpacingBetweenSlices": 2.5,
  "StationName": "AWP66112",
  "TotalReadoutTime": 0.0522511,
  "TxRefAmp": 248.024,
  "dcmmeta_affine": [
    [-2.4981753826141357, -0.07632629573345184, -0.05738994851708412, 124.91053771972656],
    [-0.07925473898649216, 2.495290756225586, 0.131311297416687, -107.6928482055664],
    [-0.05327284336090088, -0.1330348402261734, 2.495889186859131, -59.892696380615234],
    [0.0, 0.0, 0.0, 1.0]
],
  "dcmmeta_reorient_transform": [
    [0.0, -1.0, 0.0, 95.0],
    [1.0, 0.0, 0.0, 0.0],
    [0.0, 0.0, 1.0, 0.0],
    [0.0, 0.0, 0.0, 1.0]
],
  "dcmmeta_shape": [96, 96, 48, 236],
  "dcmmeta_slice_dim": 2,
  "dcmmeta_version": 0.6,
  "global": {
    "const": {
      "AccessionNumber": "A001353",
      "AcquisitionMatrix": [96, 0, 0, 96],
      "AngioFlag": "N",
      "BitsAllocated": 16,
      "BitsStored": 12,
      "BodyPartExamined": "BRAIN",
      "Columns": 672,
      "EchoNumbers": 1,
      "EchoTime": 33.0,
      "EchoTrainLength": 96,
      "FlipAngle": 59.0,
      "HighBit": 11,
      "ImageOrientationPatient": [0.99927018890411, 0.03170189677527, -0.0213091367353, -0.0305305186008, 0.99811630798355, 0.05321393775377],
      "ImagePositionPatient": [-815.15210288855, -870.82888007496, -95.502463580636],
      "ImageType": [
        "ORIGINAL",
        "PRIMARY",
        "FMRI",
        "NONE",
        "ND",
        "NORM",
        "MOSAIC"
],
      "ImagedNucleus": "1H",
      "ImagingFrequency": 123.252288,
      "InPlanePhaseEncodingDirection": "COL",
      "MRAcquisitionType": "2D",
      "MagneticFieldStrength": 3.0,
      "Manufacturer": "SIEMENS",
      "ManufacturerModelName": "Prisma",
      "Modality": "MR",
      "NumberOfAverages": 1.0,
      "NumberOfPhaseEncodingSteps": 96,
      "PercentPhaseFieldOfView": 100.0,
      "PercentSampling": 100.0,
      "PerformedProcedureStepStartTime": "145701.742000",
      "PhotometricInterpretation": "MONOCHROME2",
      "PixelBandwidth": 2365.0,
      "PixelRepresentation": 0,
      "PixelSpacing": [2.5, 2.5],
      "PositionReferenceIndicator": "",
      "ProtocolName": "func_run-05_task-localizer",
      "RepetitionTime": 1000.0,
      "Rows": 672,
      "SAR": 0.0535472668753,
      "SamplesPerPixel": 1,
      "ScanOptions": "FS",
      "ScanningSequence": "EP",
      "SequenceName": "*epfid2d1_96",
      "SequenceVariant": "SK",
      "SeriesDescription": "func_run-05_task-localizer",
      "SeriesNumber": 36,
      "SeriesTime": "153847.853000",
      "SliceLocation": -68.318177224931,
      "SliceThickness": 2.5,
      "SmallestImagePixelValue": 0,
      "SoftwareVersions": "syngo MR E11",
      "SpacingBetweenSlices": 2.4999999309946,
      "SpecificCharacterSet": "ISO_IR 100",
      "StudyID": "2",
      "StudyTime": "145701.690000",
      "TransmitCoilName": "Body",
      "VariableFlipAngleFlag": "N",
      "WindowCenterWidthExplanation": "Algo1",
      "dBdt": 0.0},
    "slices": {}
  },
  "time": {
    "samples": {
      "AcquisitionNumber": [1, 2, 3, 4, 5, 6, 7, 8, 9, 10, 11, 12, 13, 14, 15, 16, 17, 18, 19, 20, 21, 22, 23, 24, 25, 26, 27, 28, 29, 30, 31, 32, 33, 34, 35, 36, 37, 38, 39, 40, 41, 42, 43, 44, 45, 46, 47, 48, 49, 50, 51, 52, 53, 54, 55, 56, 57, 58, 59, 60, 61, 62, 63, 64, 65, 66, 67, 68, 69, 70, 71, 72, 73, 74, 75, 76, 77, 78, 79, 80, 81, 82, 83, 84, 85, 86, 87, 88, 89, 90, 91, 92, 93, 94, 95, 96, 97, 98, 99, 100, 101, 102, 103, 104, 105, 106, 107, 108, 109, 110, 111, 112, 113, 114, 115, 116, 117, 118, 119, 120, 121, 122, 123, 124, 125, 126, 127, 128, 129, 130, 131, 132, 133, 134, 135, 136, 137, 138, 139, 140, 141, 142, 143, 144, 145, 146, 147, 148, 149, 150, 151, 152, 153, 154, 155, 156, 157, 158, 159, 160, 161, 162, 163, 164, 165, 166, 167, 168, 169, 170, 171, 172, 173, 174, 175, 176, 177, 178, 179, 180, 181, 182, 183, 184, 185, 186, 187, 188, 189, 190, 191, 192, 193, 194, 195, 196, 197, 198, 199, 200, 201, 202, 203, 204, 205, 206, 207, 208, 209, 210, 211, 212, 213, 214, 215, 216, 217, 218, 219, 220, 221, 222, 223, 224, 225, 226, 227, 228, 229, 230, 231, 232, 233, 234, 235, 236],
      "AcquisitionTime": ["153846.460000", "153847.460000", "153848.460000", "153849.460000", "153850.460000", "153851.460000", "153852.460000", "153853.460000", "153854.460000", "153855.460000", "153856.460000", "153857.460000", "153858.460000", "153859.460000", "153900.460000", "153901.460000", "153902.460000", "153903.460000", "153904.460000", "153905.460000", "153906.460000", "153907.460000", "153908.460000", "153909.460000", "153910.460000", "153911.460000", "153912.460000", "153913.460000", "153914.460000", "153915.460000", "153916.460000", "153917.460000", "153918.460000", "153919.460000", "153920.460000", "153921.460000", "153922.460000", "153923.460000", "153924.460000", "153925.460000", "153926.460000", "153927.460000", "153928.460000", "153929.460000", "153930.460000", "153931.460000", "153932.460000", "153933.460000", "153934.460000", "153935.460000", "153936.460000", "153937.460000", "153938.460000", "153939.460000", "153940.460000", "153941.460000", "153942.460000", "153943.460000", "153944.460000", "153945.460000", "153946.460000", "153947.460000", "153948.460000", "153949.460000", "153950.460000", "153951.460000", "153952.460000", "153953.460000", "153954.460000", "153955.460000", "153956.460000", "153957.460000", "153958.460000", "153959.460000", "154000.460000", "154001.460000", "154002.460000", "154003.460000", "154004.460000", "154005.460000", "154006.460000", "154007.460000", "154008.460000", "154009.460000", "154010.460000", "154011.460000", "154012.460000", "154013.460000", "154014.460000", "154015.460000", "154016.460000", "154017.460000", "154018.460000", "154019.460000", "154020.460000", "154021.460000", "154022.460000", "154023.460000", "154024.460000", "154025.460000", "154026.460000", "154027.460000", "154028.460000", "154029.460000", "154030.460000", "154031.460000", "154032.460000", "154033.460000", "154034.460000", "154035.460000", "154036.460000", "154037.460000", "154038.460000", "154039.460000", "154040.460000", "154041.460000", "154042.460000", "154043.460000", "154044.460000", "154045.460000", "154046.460000", "154047.460000", "154048.460000", "154049.460000", "154050.460000", "154051.460000", "154052.460000", "154053.460000", "154054.460000", "154055.460000", "154056.460000", "154057.460000", "154058.460000", "154059.460000", "154100.460000", "154101.460000", "154102.460000", "154103.460000", "154104.460000", "154105.460000", "154106.460000", "154107.460000", "154108.460000", "154109.460000", "154110.460000", "154111.460000", "154112.460000", "154113.460000", "154114.460000", "154115.460000", "154116.460000", "154117.460000", "154118.460000", "154119.460000", "154120.460000", "154121.460000", "154122.460000", "154123.460000", "154124.460000", "154125.460000", "154126.460000", "154127.460000", "154128.460000", "154129.460000", "154130.460000", "154131.460000", "154132.460000", "154133.460000", "154134.460000", "154135.460000", "154136.460000", "154137.460000", "154138.460000", "154139.460000", "154140.460000", "154141.460000", "154142.460000", "154143.460000", "154144.460000", "154145.460000", "154146.460000", "154147.460000", "154148.460000", "154149.460000", "154150.460000", "154151.460000", "154152.460000", "154153.460000", "154154.460000", "154155.460000", "154156.460000", "154157.460000", "154158.460000", "154159.460000", "154200.460000", "154201.460000", "154202.460000", "154203.460000", "154204.460000", "154205.460000", "154206.460000", "154207.460000", "154208.460000", "154209.460000", "154210.460000", "154211.460000", "154212.460000", "154213.460000", "154214.460000", "154215.460000", "154216.460000", "154217.460000", "154218.460000", "154219.460000", "154220.460000", "154221.460000", "154222.460000", "154223.460000", "154224.460000", "154225.460000", "154226.460000", "154227.460000", "154228.460000", "154229.460000", "154230.460000", "154231.460000", "154232.460000", "154233.460000", "154234.460000", "154235.460000", "154236.460000", "154237.460000", "154238.460000", "154239.460000", "154240.460000", "154241.460000"],
      "ContentTime": ["153847.857000", "153848.749000", "153849.680000", "153850.686000", "153851.684000", "153852.665000", "153853.715000", "153854.680000", "153855.742000", "153856.681000", "153857.710000", "153858.720000", "153859.709000", "153900.679000", "153901.685000", "153902.714000", "153903.699000", "153904.668000", "153905.709000", "153906.675000", "153907.679000", "153908.673000", "153909.679000", "153910.679000", "153911.689000", "153912.688000", "153913.677000", "153914.703000", "153915.721000", "153916.720000", "153917.693000", "153918.704000", "153919.681000", "153920.664000", "153921.683000", "153922.706000", "153923.696000", "153924.694000", "153925.700000", "153926.695000", "153927.714000", "153928.692000", "153929.688000", "153930.684000", "153931.679000", "153932.656000", "153933.684000", "153934.670000", "153935.707000", "153936.692000", "153937.690000", "153938.672000", "153939.733000", "153940.684000", "153941.677000", "153942.700000", "153943.670000", "153944.701000", "153945.683000", "153946.743000", "153947.676000", "153948.696000", "153949.705000", "153950.681000", "153951.673000", "153952.748000", "153953.681000", "153954.744000", "153955.690000", "153956.666000", "153957.671000", "153958.679000", "153959.689000", "154000.674000", "154001.672000", "154002.669000", "154003.686000", "154004.643000", "154005.666000", "154006.642000", "154007.686000", "154008.669000", "154009.690000", "154010.745000", "154011.679000", "154012.683000", "154013.697000", "154014.675000", "154015.684000", "154016.687000", "154017.676000", "154018.689000", "154019.693000", "154020.647000", "154021.648000", "154022.704000", "154023.685000", "154024.702000", "154025.681000", "154026.692000", "154027.711000", "154028.687000", "154029.685000", "154030.679000", "154031.697000", "154032.674000", "154033.704000", "154034.682000", "154035.734000", "154036.688000", "154037.663000", "154038.692000", "154039.689000", "154040.719000", "154041.657000", "154042.690000", "154043.693000", "154044.741000", "154045.704000", "154046.689000", "154047.700000", "154048.691000", "154049.687000", "154050.679000", "154051.692000", "154052.704000", "154053.685000", "154054.681000", "154055.728000", "154056.704000", "154057.654000", "154058.698000", "154059.678000", "154100.670000", "154101.687000", "154102.684000", "154103.721000", "154104.696000", "154105.744000", "154106.689000", "154107.735000", "154108.706000", "154109.686000", "154110.670000", "154111.689000", "154112.735000", "154113.710000", "154114.679000", "154115.745000", "154116.710000", "154117.705000", "154118.688000", "154119.681000", "154120.688000", "154121.711000", "154122.689000", "154123.698000", "154124.688000", "154125.699000", "154126.704000", "154127.698000", "154128.708000", "154129.729000", "154130.716000", "154131.713000", "154132.699000", "154133.681000", "154134.696000", "154135.690000", "154136.696000", "154137.679000", "154138.691000", "154139.684000", "154140.735000", "154141.734000", "154142.706000", "154143.689000", "154144.685000", "154145.676000", "154146.671000", "154147.678000", "154148.742000", "154149.683000", "154150.690000", "154151.673000", "154152.739000", "154153.732000", "154154.726000", "154155.714000", "154156.652000", "154157.700000", "154158.743000", "154159.664000", "154200.683000", "154201.693000", "154202.686000", "154203.687000", "154204.682000", "154205.689000", "154206.685000", "154207.679000", "154208.685000", "154209.726000", "154210.701000", "154211.688000", "154212.681000", "154213.702000", "154214.681000", "154215.687000", "154216.740000", "154217.718000", "154218.720000", "154219.691000", "154220.681000", "154221.690000", "154222.742000", "154223.680000", "154224.719000", "154225.675000", "154226.675000", "154227.682000", "154228.682000", "154229.678000", "154230.707000", "154231.673000", "154232.709000", "154233.717000", "154234.690000", "154235.700000", "154236.684000", "154237.729000", "154238.715000", "154239.731000", "154240.692000", "154241.671000", "154242.699000"],
      "InstanceCreationTime": ["153847.857000", "153848.749000", "153849.680000", "153850.686000", "153851.684000", "153852.665000", "153853.715000", "153854.680000", "153855.742000", "153856.681000", "153857.710000", "153858.720000", "153859.709000", "153900.679000", "153901.685000", "153902.714000", "153903.699000", "153904.668000", "153905.709000", "153906.675000", "153907.679000", "153908.673000", "153909.679000", "153910.679000", "153911.689000", "153912.688000", "153913.677000", "153914.703000", "153915.721000", "153916.720000", "153917.693000", "153918.704000", "153919.681000", "153920.664000", "153921.683000", "153922.706000", "153923.696000", "153924.694000", "153925.700000", "153926.695000", "153927.714000", "153928.692000", "153929.688000", "153930.684000", "153931.679000", "153932.656000", "153933.684000", "153934.670000", "153935.707000", "153936.692000", "153937.690000", "153938.672000", "153939.733000", "153940.684000", "153941.677000", "153942.700000", "153943.670000", "153944.701000", "153945.683000", "153946.743000", "153947.676000", "153948.696000", "153949.705000", "153950.681000", "153951.673000", "153952.748000", "153953.681000", "153954.744000", "153955.690000", "153956.666000", "153957.671000", "153958.679000", "153959.689000", "154000.674000", "154001.672000", "154002.669000", "154003.686000", "154004.643000", "154005.666000", "154006.642000", "154007.686000", "154008.669000", "154009.690000", "154010.745000", "154011.679000", "154012.683000", "154013.697000", "154014.675000", "154015.684000", "154016.687000", "154017.676000", "154018.689000", "154019.693000", "154020.647000", "154021.648000", "154022.704000", "154023.685000", "154024.702000", "154025.681000", "154026.692000", "154027.711000", "154028.687000", "154029.685000", "154030.679000", "154031.697000", "154032.674000", "154033.704000", "154034.682000", "154035.734000", "154036.688000", "154037.663000", "154038.692000", "154039.689000", "154040.719000", "154041.657000", "154042.690000", "154043.693000", "154044.741000", "154045.704000", "154046.689000", "154047.700000", "154048.691000", "154049.687000", "154050.679000", "154051.692000", "154052.704000", "154053.685000", "154054.681000", "154055.728000", "154056.704000", "154057.654000", "154058.698000", "154059.678000", "154100.670000", "154101.687000", "154102.684000", "154103.721000", "154104.696000", "154105.744000", "154106.689000", "154107.735000", "154108.706000", "154109.686000", "154110.670000", "154111.689000", "154112.735000", "154113.710000", "154114.679000", "154115.745000", "154116.710000", "154117.705000", "154118.688000", "154119.681000", "154120.688000", "154121.711000", "154122.689000", "154123.698000", "154124.688000", "154125.699000", "154126.704000", "154127.698000", "154128.708000", "154129.729000", "154130.716000", "154131.713000", "154132.699000", "154133.681000", "154134.696000", "154135.690000", "154136.696000", "154137.679000", "154138.691000", "154139.684000", "154140.735000", "154141.734000", "154142.706000", "154143.689000", "154144.685000", "154145.676000", "154146.671000", "154147.678000", "154148.742000", "154149.683000", "154150.690000", "154151.673000", "154152.739000", "154153.732000", "154154.726000", "154155.714000", "154156.652000", "154157.700000", "154158.743000", "154159.664000", "154200.683000", "154201.693000", "154202.686000", "154203.687000", "154204.682000", "154205.689000", "154206.685000", "154207.679000", "154208.685000", "154209.726000", "154210.701000", "154211.688000", "154212.681000", "154213.702000", "154214.681000", "154215.687000", "154216.740000", "154217.718000", "154218.720000", "154219.691000", "154220.681000", "154221.690000", "154222.742000", "154223.680000", "154224.719000", "154225.675000", "154226.675000", "154227.682000", "154228.682000", "154229.678000", "154230.707000", "154231.673000", "154232.709000", "154233.717000", "154234.690000", "154235.700000", "154236.684000", "154237.729000", "154238.715000", "154239.731000", "154240.692000", "154241.671000", "154242.699000"],
      "InstanceNumber": [1, 2, 3, 4, 5, 6, 7, 8, 9, 10, 11, 12, 13, 14, 15, 16, 17, 18, 19, 20, 21, 22, 23, 24, 25, 26, 27, 28, 29, 30, 31, 32, 33, 34, 35, 36, 37, 38, 39, 40, 41, 42, 43, 44, 45, 46, 47, 48, 49, 50, 51, 52, 53, 54, 55, 56, 57, 58, 59, 60, 61, 62, 63, 64, 65, 66, 67, 68, 69, 70, 71, 72, 73, 74, 75, 76, 77, 78, 79, 80, 81, 82, 83, 84, 85, 86, 87, 88, 89, 90, 91, 92, 93, 94, 95, 96, 97, 98, 99, 100, 101, 102, 103, 104, 105, 106, 107, 108, 109, 110, 111, 112, 113, 114, 115, 116, 117, 118, 119, 120, 121, 122, 123, 124, 125, 126, 127, 128, 129, 130, 131, 132, 133, 134, 135, 136, 137, 138, 139, 140, 141, 142, 143, 144, 145, 146, 147, 148, 149, 150, 151, 152, 153, 154, 155, 156, 157, 158, 159, 160, 161, 162, 163, 164, 165, 166, 167, 168, 169, 170, 171, 172, 173, 174, 175, 176, 177, 178, 179, 180, 181, 182, 183, 184, 185, 186, 187, 188, 189, 190, 191, 192, 193, 194, 195, 196, 197, 198, 199, 200, 201, 202, 203, 204, 205, 206, 207, 208, 209, 210, 211, 212, 213, 214, 215, 216, 217, 218, 219, 220, 221, 222, 223, 224, 225, 226, 227, 228, 229, 230, 231, 232, 233, 234, 235, 236],
      "LargestImagePixelValue": [752, 751, 703, 727, 706, 725, 728, 770, 759, 812, 835, 763, 893, 830, 813, 736, 700, 714, 670, 697, 700, 720, 764, 759, 715, 777, 1000, 855, 748, 691, 724, 711, 771, 735, 735, 792, 938, 909, 736, 704, 693, 693, 716, 713, 719, 742, 759, 953, 848, 760, 704, 692, 774, 741, 766, 745, 693, 798, 795, 839, 757, 726, 667, 725, 696, 713, 771, 712, 704, 725, 714, 719, 705, 752, 702, 742, 807, 678, 742, 761, 695, 848, 898, 860, 753, 713, 742, 685, 697, 708, 709, 724, 726, 712, 726, 734, 739, 757, 1002, 730, 752, 845, 834, 770, 751, 701, 681, 722, 703, 688, 707, 718, 710, 748, 800, 865, 779, 779, 1105, 809, 781, 808, 804, 764, 766, 769, 758, 741, 813, 817, 785, 744, 731, 679, 735, 719, 722, 761, 736, 734, 728, 821, 835, 816, 733, 712, 690, 730, 711, 719, 722, 751, 736, 1040, 844, 730, 678, 735, 716, 706, 772, 739, 760, 919, 799, 787, 728, 705, 728, 724, 754, 802, 724, 727, 713, 727, 767, 745, 735, 714, 769, 706, 757, 810, 761, 882, 837, 766, 689, 728, 688, 682, 717, 711, 715, 782, 732, 711, 691, 724, 714, 689, 730, 697, 741, 769, 738, 768, 803, 729, 752, 805, 829, 769, 770, 793, 775, 762, 784, 732, 717, 758, 678, 710, 718, 707, 741, 715, 734, 713, 713, 719, 697, 732, 735, 708],
      "WindowCenter": [360.0, 359.0, 358.0, 358.0, 358.0, 359.0, 360.0, 360.0, 359.0, 359.0, 359.0, 359.0, 360.0, 359.0, 359.0, 359.0, 358.0, 358.0, 358.0, 358.0, 358.0, 359.0, 359.0, 359.0, 359.0, 359.0, 361.0, 360.0, 359.0, 358.0, 358.0, 359.0, 359.0, 359.0, 359.0, 359.0, 360.0, 360.0, 359.0, 358.0, 358.0, 358.0, 359.0, 359.0, 359.0, 359.0, 359.0, 361.0, 360.0, 359.0, 358.0, 359.0, 359.0, 359.0, 359.0, 359.0, 358.0, 359.0, 360.0, 361.0, 360.0, 359.0, 358.0, 359.0, 359.0, 359.0, 359.0, 359.0, 359.0, 360.0, 360.0, 359.0, 359.0, 360.0, 359.0, 359.0, 360.0, 358.0, 360.0, 359.0, 359.0, 361.0, 361.0, 360.0, 359.0, 359.0, 359.0, 358.0, 359.0, 359.0, 359.0, 359.0, 359.0, 359.0, 359.0, 360.0, 359.0, 360.0, 361.0, 359.0, 359.0, 360.0, 360.0, 359.0, 359.0, 358.0, 358.0, 359.0, 358.0, 358.0, 358.0, 359.0, 359.0, 359.0, 360.0, 361.0, 360.0, 359.0, 361.0, 359.0, 359.0, 359.0, 359.0, 359.0, 359.0, 359.0, 359.0, 359.0, 360.0, 359.0, 360.0, 359.0, 359.0, 358.0, 359.0, 359.0, 359.0, 359.0, 359.0, 359.0, 359.0, 360.0, 360.0, 360.0, 359.0, 359.0, 359.0, 359.0, 359.0, 359.0, 359.0, 359.0, 359.0, 362.0, 360.0, 359.0, 358.0, 359.0, 359.0, 359.0, 359.0, 359.0, 359.0, 360.0, 359.0, 359.0, 359.0, 359.0, 359.0, 360.0, 360.0, 360.0, 359.0, 358.0, 358.0, 358.0, 359.0, 359.0, 359.0, 359.0, 359.0, 358.0, 359.0, 359.0, 359.0, 360.0, 360.0, 359.0, 358.0, 358.0, 358.0, 358.0, 359.0, 358.0, 359.0, 359.0, 359.0, 359.0, 359.0, 359.0, 359.0, 358.0, 359.0, 358.0, 359.0, 359.0, 359.0, 359.0, 359.0, 359.0, 359.0, 360.0, 360.0, 360.0, 359.0, 360.0, 360.0, 359.0, 359.0, 359.0, 359.0, 360.0, 359.0, 360.0, 360.0, 359.0, 360.0, 359.0, 360.0, 359.0, 359.0, 359.0, 359.0, 359.0, 359.0, 358.0],
      "WindowWidth": [770.0, 768.0, 767.0, 767.0, 767.0, 769.0, 770.0, 770.0, 768.0, 769.0, 768.0, 768.0, 769.0, 768.0, 769.0, 768.0, 767.0, 767.0, 768.0, 768.0, 768.0, 768.0, 768.0, 768.0, 768.0, 769.0, 771.0, 769.0, 768.0, 767.0, 767.0, 768.0, 769.0, 768.0, 768.0, 769.0, 770.0, 769.0, 768.0, 768.0, 767.0, 767.0, 768.0, 768.0, 768.0, 768.0, 768.0, 771.0, 770.0, 768.0, 768.0, 768.0, 769.0, 768.0, 768.0, 768.0, 767.0, 769.0, 770.0, 771.0, 770.0, 769.0, 768.0, 768.0, 769.0, 768.0, 769.0, 769.0, 769.0, 770.0, 770.0, 769.0, 769.0, 769.0, 769.0, 769.0, 770.0, 768.0, 769.0, 769.0, 769.0, 771.0, 771.0, 770.0, 769.0, 769.0, 769.0, 768.0, 768.0, 768.0, 769.0, 768.0, 768.0, 769.0, 769.0, 769.0, 768.0, 769.0, 771.0, 768.0, 769.0, 770.0, 770.0, 769.0, 769.0, 767.0, 767.0, 768.0, 767.0, 767.0, 767.0, 768.0, 768.0, 768.0, 770.0, 771.0, 769.0, 769.0, 771.0, 767.0, 767.0, 767.0, 767.0, 768.0, 768.0, 768.0, 768.0, 768.0, 770.0, 769.0, 769.0, 769.0, 768.0, 768.0, 768.0, 768.0, 768.0, 768.0, 768.0, 768.0, 769.0, 770.0, 770.0, 770.0, 768.0, 768.0, 768.0, 768.0, 769.0, 768.0, 768.0, 769.0, 768.0, 772.0, 770.0, 768.0, 767.0, 768.0, 768.0, 768.0, 769.0, 768.0, 768.0, 770.0, 769.0, 769.0, 769.0, 768.0, 769.0, 770.0, 769.0, 770.0, 768.0, 767.0, 767.0, 767.0, 767.0, 768.0, 768.0, 768.0, 768.0, 767.0, 769.0, 769.0, 768.0, 770.0, 770.0, 768.0, 767.0, 767.0, 767.0, 767.0, 768.0, 767.0, 768.0, 768.0, 768.0, 768.0, 769.0, 768.0, 768.0, 768.0, 768.0, 768.0, 769.0, 768.0, 768.0, 768.0, 769.0, 768.0, 769.0, 769.0, 770.0, 770.0, 769.0, 770.0, 769.0, 769.0, 769.0, 769.0, 769.0, 770.0, 769.0, 770.0, 770.0, 769.0, 770.0, 769.0, 770.0, 769.0, 769.0, 769.0, 768.0, 768.0, 768.0, 767.0]
    },
    "slices": {}
  }
}