{
  "AcquisitionMatrixPE": 96,
  "AcquisitionNumber": 1,
  "AcquisitionTime": "15:48:41.870000",
  "BandwidthPerPixelPhaseEncode": 18.939,
  "BaseResolution": 96,
  "BodyPartExamined": "BRAIN",
  "ConsistencyInfo": "N4_VE11C_LATEST_20160120",
  "ConversionSoftware": "dcm2niix",
  "ConversionSoftwareVersion": "v1.0.20171215 (OpenJPEG build) GCC6.3.0",
  "DerivedVendorReportedEchoSpacing": 0.000550011,
  "DeviceSerialNumber": "66112",
  "DwellTime": 2.2e-06,
  "EchoTime": 0.033,
  "EchoTrainLength": 96,
  "EffectiveEchoSpacing": 0.000550011,
  "FlipAngle": 59,
  "ImageOrientationPatientDICOM": [0.99927, 0.0317019, -0.0213091, -0.0305305, 0.998116, 0.0532139],
  "ImageType": [
    "ORIGINAL",
    "PRIMARY",
    "FMRI",
    "NONE",
    "ND",
    "NORM",
    "MOSAIC"
],
  "InPlanePhaseEncodingDirectionDICOM": "COL",
  "InstitutionAddress": "Maynard_3_Hanover_NH_US_03755",
  "InstitutionName": "Dartmouth_College_-_PBS",
  "InstitutionalDepartmentName": "Department",
  "MRAcquisitionType": "2D",
  "MagneticFieldStrength": 3,
  "Manufacturer": "Siemens",
  "ManufacturersModelName": "Prisma",
  "Modality": "MR",
  "MultibandAccelerationFactor": 4,
  "PartialFourier": 1,
  "PatientPosition": "HFS",
  "PercentPhaseFOV": 100,
  "PhaseEncodingDirection": "j-",
  "PhaseEncodingSteps": 96,
  "PhaseResolution": 1,
  "PixelBandwidth": 2365,
  "ProcedureStepDescription": "Gobbini_Matteo_1038_hyperface",
  "ProtocolName": "func_run-07_task-visualmemory",
  "PulseSequenceDetails": "%SiemensSeq%_ep2d_bold",
  "ReceiveCoilActiveElements": "HEA;HEP",
  "ReceiveCoilName": "Head_32",
  "ReconMatrixPE": 96,
  "RepetitionTime": 1,
  "SAR": 0.0536756,
  "ScanOptions": "FS",
  "ScanningSequence": "EP",
  "SequenceName": "_epfid2d1_96",
  "SequenceVariant": "SK",
  "SeriesDescription": "func_run-07_task-visualmemory",
  "SeriesNumber": 50,
  "ShimSetting": [4138, -7733, -7331, 756, -45, -32, 110, 113],
  "SliceThickness": 2.5,
  "SliceTiming": [0.735, 0, 0.49, 0.08, 0.57, 0.1625, 0.6525, 0.325, 0.815, 0.4075, 0.8975, 0.245, 0.735, 0, 0.49, 0.08, 0.57, 0.1625, 0.6525, 0.325, 0.815, 0.4075, 0.8975, 0.245, 0.735, 0, 0.49, 0.08, 0.57, 0.1625, 0.6525, 0.325, 0.815, 0.4075, 0.8975, 0.245, 0.735, 0, 0.49, 0.08, 0.57, 0.1625, 0.6525, 0.325, 0.815, 0.4075, 0.8975, 0.245],
  "SoftwareVersions": "syngo_MR_E11",
  "SpacingBetweenSlices": 2.5,
  "StationName": "AWP66112",
  "TotalReadoutTime": 0.0522511,
  "TxRefAmp": 248.024,
  "dcmmeta_affine": [
    [-2.4981753826141357, -0.07632629573345184, -0.05738994851708412, 124.91053771972656],
    [-0.07925473898649216, 2.495290756225586, 0.131311297416687, -107.6928482055664],
    [-0.05327284336090088, -0.1330348402261734, 2.495889186859131, -59.892696380615234],
    [0.0, 0.0, 0.0, 1.0]
],
  "dcmmeta_reorient_transform": [
    [0.0, -1.0, 0.0, 95.0],
    [1.0, 0.0, 0.0, 0.0],
    [0.0, 0.0, 1.0, 0.0],
    [0.0, 0.0, 0.0, 1.0]
],
  "dcmmeta_shape": [96, 96, 48, 288],
  "dcmmeta_slice_dim": 2,
  "dcmmeta_version": 0.6,
  "global": {
    "const": {
      "AccessionNumber": "A001353",
      "AcquisitionMatrix": [96, 0, 0, 96],
      "AngioFlag": "N",
      "BitsAllocated": 16,
      "BitsStored": 12,
      "BodyPartExamined": "BRAIN",
      "Columns": 672,
      "EchoNumbers": 1,
      "EchoTime": 33.0,
      "EchoTrainLength": 96,
      "FlipAngle": 59.0,
      "HighBit": 11,
      "ImageOrientationPatient": [0.99927018890411, 0.03170189677527, -0.0213091367353, -0.0305305186008, 0.99811630798355, 0.05321393775377],
      "ImagePositionPatient": [-815.15210288855, -870.82888007496, -95.502463580636],
      "ImageType": [
        "ORIGINAL",
        "PRIMARY",
        "FMRI",
        "NONE",
        "ND",
        "NORM",
        "MOSAIC"
],
      "ImagedNucleus": "1H",
      "ImagingFrequency": 123.252293,
      "InPlanePhaseEncodingDirection": "COL",
      "MRAcquisitionType": "2D",
      "MagneticFieldStrength": 3.0,
      "Manufacturer": "SIEMENS",
      "ManufacturerModelName": "Prisma",
      "Modality": "MR",
      "NumberOfAverages": 1.0,
      "NumberOfPhaseEncodingSteps": 96,
      "PercentPhaseFieldOfView": 100.0,
      "PercentSampling": 100.0,
      "PerformedProcedureStepStartTime": "145701.742000",
      "PhotometricInterpretation": "MONOCHROME2",
      "PixelBandwidth": 2365.0,
      "PixelRepresentation": 0,
      "PixelSpacing": [2.5, 2.5],
      "PositionReferenceIndicator": "",
      "ProtocolName": "func_run-07_task-visualmemory",
      "RepetitionTime": 1000.0,
      "Rows": 672,
      "SAR": 0.05367561129469,
      "SamplesPerPixel": 1,
      "ScanOptions": "FS",
      "ScanningSequence": "EP",
      "SequenceName": "*epfid2d1_96",
      "SequenceVariant": "SK",
      "SeriesDescription": "func_run-07_task-visualmemory",
      "SeriesNumber": 50,
      "SeriesTime": "154843.276000",
      "SliceLocation": -68.318177224931,
      "SliceThickness": 2.5,
      "SmallestImagePixelValue": 0,
      "SoftwareVersions": "syngo MR E11",
      "SpacingBetweenSlices": 2.4999999309946,
      "SpecificCharacterSet": "ISO_IR 100",
      "StudyID": "2",
      "StudyTime": "145701.690000",
      "TransmitCoilName": "Body",
      "VariableFlipAngleFlag": "N",
      "WindowCenterWidthExplanation": "Algo1",
      "dBdt": 0.0},
    "slices": {}
  },
  "time": {
    "samples": {
      "AcquisitionNumber": [1, 2, 3, 4, 5, 6, 7, 8, 9, 10, 11, 12, 13, 14, 15, 16, 17, 18, 19, 20, 21, 22, 23, 24, 25, 26, 27, 28, 29, 30, 31, 32, 33, 34, 35, 36, 37, 38, 39, 40, 41, 42, 43, 44, 45, 46, 47, 48, 49, 50, 51, 52, 53, 54, 55, 56, 57, 58, 59, 60, 61, 62, 63, 64, 65, 66, 67, 68, 69, 70, 71, 72, 73, 74, 75, 76, 77, 78, 79, 80, 81, 82, 83, 84, 85, 86, 87, 88, 89, 90, 91, 92, 93, 94, 95, 96, 97, 98, 99, 100, 101, 102, 103, 104, 105, 106, 107, 108, 109, 110, 111, 112, 113, 114, 115, 116, 117, 118, 119, 120, 121, 122, 123, 124, 125, 126, 127, 128, 129, 130, 131, 132, 133, 134, 135, 136, 137, 138, 139, 140, 141, 142, 143, 144, 145, 146, 147, 148, 149, 150, 151, 152, 153, 154, 155, 156, 157, 158, 159, 160, 161, 162, 163, 164, 165, 166, 167, 168, 169, 170, 171, 172, 173, 174, 175, 176, 177, 178, 179, 180, 181, 182, 183, 184, 185, 186, 187, 188, 189, 190, 191, 192, 193, 194, 195, 196, 197, 198, 199, 200, 201, 202, 203, 204, 205, 206, 207, 208, 209, 210, 211, 212, 213, 214, 215, 216, 217, 218, 219, 220, 221, 222, 223, 224, 225, 226, 227, 228, 229, 230, 231, 232, 233, 234, 235, 236, 237, 238, 239, 240, 241, 242, 243, 244, 245, 246, 247, 248, 249, 250, 251, 252, 253, 254, 255, 256, 257, 258, 259, 260, 261, 262, 263, 264, 265, 266, 267, 268, 269, 270, 271, 272, 273, 274, 275, 276, 277, 278, 279, 280, 281, 282, 283, 284, 285, 286, 287, 288],
      "AcquisitionTime": ["154841.870000", "154842.870000", "154843.870000", "154844.870000", "154845.870000", "154846.870000", "154847.870000", "154848.870000", "154849.870000", "154850.870000", "154851.870000", "154852.870000", "154853.870000", "154854.870000", "154855.870000", "154856.870000", "154857.870000", "154858.870000", "154859.870000", "154900.870000", "154901.870000", "154902.870000", "154903.870000", "154904.870000", "154905.870000", "154906.870000", "154907.870000", "154908.870000", "154909.870000", "154910.870000", "154911.870000", "154912.870000", "154913.870000", "154914.870000", "154915.870000", "154916.870000", "154917.870000", "154918.870000", "154919.870000", "154920.870000", "154921.870000", "154922.870000", "154923.870000", "154924.870000", "154925.870000", "154926.870000", "154927.870000", "154928.870000", "154929.870000", "154930.870000", "154931.870000", "154932.870000", "154933.870000", "154934.870000", "154935.870000", "154936.870000", "154937.870000", "154938.870000", "154939.870000", "154940.870000", "154941.870000", "154942.870000", "154943.870000", "154944.870000", "154945.870000", "154946.870000", "154947.870000", "154948.870000", "154949.870000", "154950.870000", "154951.870000", "154952.870000", "154953.870000", "154954.870000", "154955.870000", "154956.870000", "154957.870000", "154958.870000", "154959.870000", "155000.870000", "155001.870000", "155002.870000", "155003.870000", "155004.870000", "155005.870000", "155006.870000", "155007.870000", "155008.870000", "155009.870000", "155010.870000", "155011.870000", "155012.870000", "155013.870000", "155014.870000", "155015.870000", "155016.870000", "155017.870000", "155018.870000", "155019.870000", "155020.870000", "155021.870000", "155022.870000", "155023.870000", "155024.870000", "155025.870000", "155026.870000", "155027.870000", "155028.870000", "155029.870000", "155030.870000", "155031.870000", "155032.870000", "155033.870000", "155034.870000", "155035.870000", "155036.870000", "155037.870000", "155038.870000", "155039.870000", "155040.870000", "155041.870000", "155042.870000", "155043.870000", "155044.870000", "155045.870000", "155046.870000", "155047.870000", "155048.870000", "155049.870000", "155050.870000", "155051.870000", "155052.870000", "155053.870000", "155054.870000", "155055.870000", "155056.870000", "155057.870000", "155058.870000", "155059.870000", "155100.870000", "155101.870000", "155102.870000", "155103.870000", "155104.870000", "155105.870000", "155106.870000", "155107.870000", "155108.870000", "155109.870000", "155110.870000", "155111.870000", "155112.870000", "155113.870000", "155114.870000", "155115.870000", "155116.870000", "155117.870000", "155118.870000", "155119.870000", "155120.870000", "155121.870000", "155122.870000", "155123.870000", "155124.870000", "155125.870000", "155126.870000", "155127.870000", "155128.870000", "155129.870000", "155130.870000", "155131.870000", "155132.870000", "155133.870000", "155134.870000", "155135.870000", "155136.870000", "155137.870000", "155138.870000", "155139.870000", "155140.870000", "155141.870000", "155142.870000", "155143.870000", "155144.870000", "155145.870000", "155146.870000", "155147.870000", "155148.870000", "155149.870000", "155150.870000", "155151.870000", "155152.870000", "155153.870000", "155154.870000", "155155.870000", "155156.870000", "155157.870000", "155158.870000", "155159.870000", "155200.870000", "155201.870000", "155202.870000", "155203.870000", "155204.870000", "155205.870000", "155206.870000", "155207.870000", "155208.870000", "155209.870000", "155210.870000", "155211.870000", "155212.870000", "155213.870000", "155214.870000", "155215.870000", "155216.870000", "155217.870000", "155218.870000", "155219.870000", "155220.870000", "155221.870000", "155222.870000", "155223.870000", "155224.870000", "155225.870000", "155226.870000", "155227.870000", "155228.870000", "155229.870000", "155230.870000", "155231.870000", "155232.870000", "155233.870000", "155234.870000", "155235.870000", "155236.870000", "155237.870000", "155238.870000", "155239.870000", "155240.870000", "155241.870000", "155242.870000", "155243.870000", "155244.870000", "155245.870000", "155246.870000", "155247.870000", "155248.870000", "155249.870000", "155250.870000", "155251.870000", "155252.870000", "155253.870000", "155254.870000", "155255.870000", "155256.870000", "155257.870000", "155258.870000", "155259.870000", "155300.870000", "155301.870000", "155302.870000", "155303.870000", "155304.870000", "155305.870000", "155306.870000", "155307.870000", "155308.870000", "155309.870000", "155310.870000", "155311.870000", "155312.870000", "155313.870000", "155314.870000", "155315.870000", "155316.870000", "155317.870000", "155318.870000", "155319.870000", "155320.870000", "155321.870000", "155322.870000", "155323.870000", "155324.870000", "155325.870000", "155326.870000", "155327.870000", "155328.870000"],
      "ContentTime": ["154843.280000", "154844.132000", "154845.104000", "154846.105000", "154847.125000", "154848.105000", "154849.103000", "154850.087000", "154851.094000", "154852.131000", "154853.102000", "154854.120000", "154855.106000", "154856.142000", "154857.124000", "154858.094000", "154859.089000", "154900.107000", "154901.094000", "154902.105000", "154903.150000", "154904.147000", "154905.129000", "154906.107000", "154907.134000", "154908.092000", "154909.122000", "154910.118000", "154911.166000", "154912.152000", "154913.094000", "154914.113000", "154915.143000", "154916.150000", "154917.174000", "154918.112000", "154919.145000", "154920.110000", "154921.117000", "154922.134000", "154923.117000", "154924.098000", "154925.114000", "154926.112000", "154927.133000", "154928.110000", "154929.102000", "154930.146000", "154931.121000", "154932.122000", "154933.095000", "154934.115000", "154935.125000", "154936.099000", "154937.111000", "154938.082000", "154939.105000", "154940.105000", "154941.114000", "154942.115000", "154943.122000", "154944.126000", "154945.109000", "154946.088000", "154947.103000", "154948.102000", "154949.142000", "154950.114000", "154951.106000", "154952.121000", "154953.116000", "154954.154000", "154955.144000", "154956.110000", "154957.128000", "154958.108000", "154959.090000", "155000.103000", "155001.132000", "155002.091000", "155003.110000", "155004.099000", "155005.128000", "155006.128000", "155007.117000", "155008.094000", "155009.098000", "155010.101000", "155011.107000", "155012.099000", "155013.107000", "155014.126000", "155015.122000", "155016.104000", "155017.081000", "155018.128000", "155019.141000", "155020.127000", "155021.092000", "155022.107000", "155023.154000", "155024.115000", "155025.148000", "155026.083000", "155027.107000", "155028.099000", "155029.138000", "155030.124000", "155031.111000", "155032.100000", "155033.108000", "155034.110000", "155035.114000", "155036.171000", "155037.105000", "155038.105000", "155039.139000", "155040.114000", "155041.119000", "155042.135000", "155043.120000", "155044.108000", "155045.074000", "155046.171000", "155047.108000", "155048.096000", "155049.091000", "155050.160000", "155051.100000", "155052.093000", "155053.097000", "155054.101000", "155055.111000", "155056.116000", "155057.113000", "155058.121000", "155059.110000", "155100.101000", "155101.096000", "155102.131000", "155103.134000", "155104.120000", "155105.112000", "155106.128000", "155107.110000", "155108.114000", "155109.124000", "155110.111000", "155111.126000", "155112.126000", "155113.164000", "155114.182000", "155115.107000", "155116.138000", "155117.101000", "155118.113000", "155119.115000", "155120.122000", "155121.123000", "155122.090000", "155123.128000", "155124.142000", "155125.112000", "155126.116000", "155127.141000", "155128.113000", "155129.112000", "155130.106000", "155131.111000", "155132.119000", "155133.092000", "155134.146000", "155135.116000", "155136.102000", "155137.124000", "155138.135000", "155139.101000", "155140.186000", "155141.107000", "155142.109000", "155143.093000", "155144.127000", "155145.108000", "155146.113000", "155147.119000", "155148.125000", "155149.105000", "155150.193000", "155151.116000", "155152.114000", "155153.131000", "155154.117000", "155155.126000", "155156.125000", "155157.130000", "155158.077000", "155159.132000", "155200.126000", "155201.125000", "155202.120000", "155203.128000", "155204.142000", "155205.114000", "155206.131000", "155207.101000", "155208.099000", "155209.124000", "155210.079000", "155211.096000", "155212.155000", "155213.094000", "155214.095000", "155215.135000", "155216.108000", "155217.105000", "155218.118000", "155219.089000", "155220.096000", "155221.132000", "155222.129000", "155223.114000", "155224.110000", "155225.125000", "155226.129000", "155227.134000", "155228.106000", "155229.149000", "155230.110000", "155231.085000", "155232.120000", "155233.158000", "155234.112000", "155235.113000", "155236.105000", "155237.107000", "155238.106000", "155239.118000", "155240.113000", "155241.109000", "155242.080000", "155243.109000", "155244.096000", "155245.123000", "155246.111000", "155247.125000", "155248.102000", "155249.095000", "155250.106000", "155251.142000", "155252.100000", "155253.119000", "155254.111000", "155255.101000", "155256.185000", "155257.110000", "155258.097000", "155259.091000", "155300.090000", "155301.121000", "155302.114000", "155303.124000", "155304.105000", "155305.118000", "155306.132000", "155307.133000", "155308.122000", "155309.080000", "155310.130000", "155311.109000", "155312.096000", "155313.105000", "155314.094000", "155315.106000", "155316.103000", "155317.124000", "155318.110000", "155319.108000", "155320.101000", "155321.078000", "155322.120000", "155323.106000", "155324.104000", "155325.162000", "155326.106000", "155327.130000", "155328.114000", "155329.089000", "155330.168000"],
      "InstanceCreationTime": ["154843.280000", "154844.132000", "154845.104000", "154846.105000", "154847.125000", "154848.105000", "154849.103000", "154850.087000", "154851.094000", "154852.131000", "154853.102000", "154854.120000", "154855.106000", "154856.142000", "154857.124000", "154858.094000", "154859.089000", "154900.107000", "154901.094000", "154902.105000", "154903.150000", "154904.147000", "154905.129000", "154906.107000", "154907.134000", "154908.092000", "154909.122000", "154910.118000", "154911.166000", "154912.152000", "154913.094000", "154914.113000", "154915.143000", "154916.150000", "154917.174000", "154918.112000", "154919.145000", "154920.110000", "154921.117000", "154922.134000", "154923.117000", "154924.098000", "154925.114000", "154926.112000", "154927.133000", "154928.110000", "154929.102000", "154930.146000", "154931.121000", "154932.122000", "154933.095000", "154934.115000", "154935.125000", "154936.099000", "154937.111000", "154938.082000", "154939.105000", "154940.105000", "154941.114000", "154942.115000", "154943.122000", "154944.126000", "154945.109000", "154946.088000", "154947.103000", "154948.102000", "154949.142000", "154950.114000", "154951.106000", "154952.121000", "154953.116000", "154954.154000", "154955.144000", "154956.110000", "154957.128000", "154958.108000", "154959.090000", "155000.103000", "155001.132000", "155002.091000", "155003.110000", "155004.099000", "155005.128000", "155006.128000", "155007.117000", "155008.094000", "155009.098000", "155010.101000", "155011.107000", "155012.099000", "155013.107000", "155014.126000", "155015.122000", "155016.104000", "155017.081000", "155018.128000", "155019.141000", "155020.127000", "155021.092000", "155022.107000", "155023.154000", "155024.115000", "155025.148000", "155026.083000", "155027.107000", "155028.099000", "155029.138000", "155030.124000", "155031.111000", "155032.100000", "155033.108000", "155034.110000", "155035.114000", "155036.171000", "155037.105000", "155038.105000", "155039.139000", "155040.114000", "155041.119000", "155042.135000", "155043.120000", "155044.108000", "155045.074000", "155046.171000", "155047.108000", "155048.096000", "155049.091000", "155050.160000", "155051.100000", "155052.093000", "155053.097000", "155054.101000", "155055.111000", "155056.116000", "155057.113000", "155058.121000", "155059.110000", "155100.101000", "155101.096000", "155102.131000", "155103.134000", "155104.120000", "155105.112000", "155106.128000", "155107.110000", "155108.114000", "155109.124000", "155110.111000", "155111.126000", "155112.126000", "155113.164000", "155114.182000", "155115.107000", "155116.138000", "155117.101000", "155118.113000", "155119.115000", "155120.122000", "155121.123000", "155122.090000", "155123.128000", "155124.142000", "155125.112000", "155126.116000", "155127.141000", "155128.113000", "155129.112000", "155130.106000", "155131.111000", "155132.119000", "155133.092000", "155134.146000", "155135.116000", "155136.102000", "155137.124000", "155138.135000", "155139.101000", "155140.186000", "155141.107000", "155142.109000", "155143.093000", "155144.127000", "155145.108000", "155146.113000", "155147.119000", "155148.125000", "155149.105000", "155150.193000", "155151.116000", "155152.114000", "155153.131000", "155154.117000", "155155.126000", "155156.125000", "155157.130000", "155158.077000", "155159.132000", "155200.126000", "155201.125000", "155202.120000", "155203.128000", "155204.142000", "155205.114000", "155206.131000", "155207.101000", "155208.099000", "155209.124000", "155210.079000", "155211.096000", "155212.155000", "155213.094000", "155214.095000", "155215.135000", "155216.108000", "155217.105000", "155218.118000", "155219.089000", "155220.096000", "155221.132000", "155222.129000", "155223.114000", "155224.110000", "155225.125000", "155226.129000", "155227.134000", "155228.106000", "155229.149000", "155230.110000", "155231.085000", "155232.120000", "155233.158000", "155234.112000", "155235.113000", "155236.105000", "155237.107000", "155238.106000", "155239.118000", "155240.113000", "155241.109000", "155242.080000", "155243.109000", "155244.096000", "155245.123000", "155246.111000", "155247.125000", "155248.102000", "155249.095000", "155250.106000", "155251.142000", "155252.100000", "155253.119000", "155254.111000", "155255.101000", "155256.185000", "155257.110000", "155258.097000", "155259.091000", "155300.090000", "155301.121000", "155302.114000", "155303.124000", "155304.105000", "155305.118000", "155306.132000", "155307.133000", "155308.122000", "155309.080000", "155310.130000", "155311.109000", "155312.096000", "155313.105000", "155314.094000", "155315.106000", "155316.103000", "155317.124000", "155318.110000", "155319.108000", "155320.101000", "155321.078000", "155322.120000", "155323.106000", "155324.104000", "155325.162000", "155326.106000", "155327.130000", "155328.114000", "155329.089000", "155330.168000"],
      "InstanceNumber": [1, 2, 3, 4, 5, 6, 7, 8, 9, 10, 11, 12, 13, 14, 15, 16, 17, 18, 19, 20, 21, 22, 23, 24, 25, 26, 27, 28, 29, 30, 31, 32, 33, 34, 35, 36, 37, 38, 39, 40, 41, 42, 43, 44, 45, 46, 47, 48, 49, 50, 51, 52, 53, 54, 55, 56, 57, 58, 59, 60, 61, 62, 63, 64, 65, 66, 67, 68, 69, 70, 71, 72, 73, 74, 75, 76, 77, 78, 79, 80, 81, 82, 83, 84, 85, 86, 87, 88, 89, 90, 91, 92, 93, 94, 95, 96, 97, 98, 99, 100, 101, 102, 103, 104, 105, 106, 107, 108, 109, 110, 111, 112, 113, 114, 115, 116, 117, 118, 119, 120, 121, 122, 123, 124, 125, 126, 127, 128, 129, 130, 131, 132, 133, 134, 135, 136, 137, 138, 139, 140, 141, 142, 143, 144, 145, 146, 147, 148, 149, 150, 151, 152, 153, 154, 155, 156, 157, 158, 159, 160, 161, 162, 163, 164, 165, 166, 167, 168, 169, 170, 171, 172, 173, 174, 175, 176, 177, 178, 179, 180, 181, 182, 183, 184, 185, 186, 187, 188, 189, 190, 191, 192, 193, 194, 195, 196, 197, 198, 199, 200, 201, 202, 203, 204, 205, 206, 207, 208, 209, 210, 211, 212, 213, 214, 215, 216, 217, 218, 219, 220, 221, 222, 223, 224, 225, 226, 227, 228, 229, 230, 231, 232, 233, 234, 235, 236, 237, 238, 239, 240, 241, 242, 243, 244, 245, 246, 247, 248, 249, 250, 251, 252, 253, 254, 255, 256, 257, 258, 259, 260, 261, 262, 263, 264, 265, 266, 267, 268, 269, 270, 271, 272, 273, 274, 275, 276, 277, 278, 279, 280, 281, 282, 283, 284, 285, 286, 287, 288],
      "LargestImagePixelValue": [1155, 686, 696, 724, 723, 872, 949, 735, 719, 721, 705, 736, 733, 751, 760, 1013, 871, 697, 679, 726, 723, 785, 738, 759, 852, 744, 714, 701, 735, 741, 735, 751, 837, 903, 741, 694, 716, 739, 732, 724, 772, 726, 710, 768, 1025, 892, 743, 702, 715, 696, 727, 733, 713, 734, 717, 720, 711, 720, 745, 713, 846, 897, 839, 752, 713, 709, 696, 734, 711, 717, 726, 723, 723, 721, 735, 744, 725, 970, 878, 770, 681, 741, 730, 716, 774, 711, 696, 748, 872, 866, 722, 708, 693, 671, 713, 745, 716, 734, 728, 752, 706, 750, 716, 711, 721, 808, 724, 939, 843, 750, 691, 739, 731, 720, 769, 716, 695, 754, 938, 764, 737, 693, 678, 707, 676, 737, 733, 724, 738, 721, 702, 735, 787, 684, 696, 827, 701, 722, 936, 825, 801, 800, 819, 738, 723, 728, 676, 744, 696, 679, 734, 756, 716, 743, 698, 733, 709, 766, 699, 701, 738, 737, 855, 734, 825, 840, 800, 717, 683, 674, 700, 721, 724, 727, 749, 742, 1051, 885, 736, 699, 692, 676, 671, 735, 727, 709, 732, 725, 708, 794, 850, 790, 706, 721, 712, 714, 902, 763, 685, 739, 723, 725, 727, 719, 725, 745, 785, 869, 847, 791, 762, 694, 696, 733, 705, 750, 741, 748, 732, 805, 723, 947, 825, 760, 730, 679, 722, 720, 709, 762, 744, 722, 736, 728, 835, 861, 820, 727, 727, 712, 718, 787, 732, 699, 742, 723, 713, 736, 765, 732, 712, 709, 709, 692, 719, 1062, 910, 729, 726, 708, 696, 755, 715, 737, 763, 710, 706, 840, 854, 796, 709, 665, 688, 668, 678, 726, 694, 724, 737, 704, 690, 759, 702, 723, 710, 772, 751, 722],
      "WindowCenter": [365.0, 358.0, 358.0, 359.0, 359.0, 360.0, 360.0, 359.0, 359.0, 358.0, 358.0, 358.0, 358.0, 359.0, 359.0, 361.0, 360.0, 358.0, 358.0, 358.0, 359.0, 359.0, 359.0, 359.0, 360.0, 358.0, 358.0, 358.0, 359.0, 359.0, 359.0, 359.0, 360.0, 361.0, 359.0, 359.0, 359.0, 359.0, 359.0, 359.0, 360.0, 359.0, 359.0, 359.0, 361.0, 360.0, 359.0, 358.0, 358.0, 358.0, 359.0, 359.0, 359.0, 359.0, 359.0, 359.0, 359.0, 359.0, 359.0, 359.0, 360.0, 361.0, 360.0, 359.0, 359.0, 359.0, 359.0, 359.0, 359.0, 359.0, 359.0, 359.0, 359.0, 359.0, 359.0, 359.0, 359.0, 361.0, 361.0, 359.0, 358.0, 359.0, 359.0, 359.0, 359.0, 359.0, 358.0, 359.0, 361.0, 360.0, 359.0, 359.0, 359.0, 359.0, 360.0, 359.0, 360.0, 360.0, 359.0, 360.0, 359.0, 360.0, 359.0, 360.0, 360.0, 360.0, 360.0, 361.0, 360.0, 359.0, 359.0, 359.0, 359.0, 359.0, 359.0, 359.0, 358.0, 359.0, 361.0, 359.0, 360.0, 359.0, 359.0, 360.0, 359.0, 360.0, 360.0, 359.0, 360.0, 359.0, 359.0, 360.0, 360.0, 358.0, 359.0, 360.0, 359.0, 360.0, 361.0, 360.0, 360.0, 360.0, 360.0, 359.0, 359.0, 359.0, 358.0, 359.0, 358.0, 358.0, 359.0, 359.0, 359.0, 359.0, 359.0, 360.0, 359.0, 359.0, 359.0, 359.0, 360.0, 360.0, 361.0, 359.0, 359.0, 360.0, 359.0, 359.0, 359.0, 358.0, 359.0, 359.0, 359.0, 359.0, 359.0, 359.0, 362.0, 360.0, 359.0, 358.0, 358.0, 358.0, 359.0, 359.0, 359.0, 359.0, 360.0, 359.0, 359.0, 360.0, 361.0, 360.0, 360.0, 360.0, 360.0, 361.0, 362.0, 360.0, 359.0, 359.0, 359.0, 360.0, 359.0, 360.0, 360.0, 360.0, 360.0, 361.0, 361.0, 360.0, 360.0, 359.0, 359.0, 359.0, 359.0, 360.0, 359.0, 359.0, 360.0, 360.0, 359.0, 361.0, 360.0, 359.0, 359.0, 358.0, 358.0, 358.0, 358.0, 359.0, 358.0, 358.0, 359.0, 359.0, 360.0, 360.0, 360.0, 359.0, 360.0, 359.0, 359.0, 360.0, 360.0, 360.0, 360.0, 359.0, 359.0, 359.0, 359.0, 359.0, 359.0, 359.0, 360.0, 360.0, 360.0, 363.0, 361.0, 360.0, 359.0, 358.0, 359.0, 359.0, 359.0, 359.0, 359.0, 359.0, 359.0, 361.0, 361.0, 359.0, 359.0, 358.0, 359.0, 359.0, 359.0, 359.0, 359.0, 359.0, 360.0, 359.0, 359.0, 360.0, 359.0, 359.0, 358.0, 359.0, 359.0, 359.0],
      "WindowWidth": [779.0, 768.0, 768.0, 769.0, 769.0, 770.0, 770.0, 768.0, 768.0, 767.0, 767.0, 767.0, 767.0, 768.0, 768.0, 771.0, 769.0, 767.0, 766.0, 767.0, 768.0, 769.0, 768.0, 768.0, 769.0, 767.0, 767.0, 767.0, 768.0, 769.0, 768.0, 769.0, 770.0, 770.0, 768.0, 768.0, 768.0, 768.0, 768.0, 768.0, 769.0, 769.0, 768.0, 768.0, 771.0, 769.0, 768.0, 767.0, 767.0, 767.0, 768.0, 768.0, 768.0, 769.0, 769.0, 768.0, 768.0, 769.0, 769.0, 769.0, 770.0, 771.0, 770.0, 769.0, 768.0, 769.0, 768.0, 768.0, 768.0, 769.0, 768.0, 769.0, 768.0, 769.0, 769.0, 768.0, 768.0, 772.0, 771.0, 769.0, 768.0, 768.0, 768.0, 768.0, 769.0, 768.0, 768.0, 769.0, 771.0, 770.0, 769.0, 769.0, 769.0, 769.0, 770.0, 769.0, 770.0, 770.0, 769.0, 770.0, 769.0, 770.0, 769.0, 770.0, 770.0, 771.0, 770.0, 772.0, 770.0, 769.0, 769.0, 768.0, 768.0, 768.0, 768.0, 769.0, 767.0, 769.0, 771.0, 769.0, 769.0, 769.0, 769.0, 770.0, 769.0, 770.0, 770.0, 768.0, 769.0, 769.0, 769.0, 769.0, 769.0, 768.0, 769.0, 770.0, 769.0, 770.0, 772.0, 770.0, 770.0, 770.0, 770.0, 768.0, 769.0, 769.0, 768.0, 768.0, 768.0, 767.0, 769.0, 769.0, 769.0, 769.0, 769.0, 769.0, 769.0, 769.0, 768.0, 769.0, 771.0, 771.0, 772.0, 769.0, 769.0, 770.0, 769.0, 768.0, 769.0, 768.0, 769.0, 769.0, 768.0, 768.0, 768.0, 768.0, 772.0, 770.0, 768.0, 768.0, 768.0, 768.0, 769.0, 769.0, 769.0, 768.0, 770.0, 769.0, 769.0, 771.0, 772.0, 770.0, 770.0, 770.0, 771.0, 773.0, 774.0, 771.0, 769.0, 768.0, 769.0, 770.0, 769.0, 770.0, 770.0, 770.0, 771.0, 771.0, 771.0, 770.0, 769.0, 769.0, 769.0, 769.0, 769.0, 769.0, 768.0, 768.0, 769.0, 770.0, 769.0, 772.0, 770.0, 769.0, 768.0, 767.0, 767.0, 767.0, 766.0, 768.0, 767.0, 767.0, 768.0, 768.0, 770.0, 770.0, 770.0, 769.0, 770.0, 769.0, 769.0, 770.0, 770.0, 770.0, 770.0, 768.0, 768.0, 769.0, 769.0, 769.0, 769.0, 769.0, 770.0, 770.0, 771.0, 775.0, 772.0, 770.0, 768.0, 767.0, 768.0, 769.0, 769.0, 768.0, 769.0, 768.0, 769.0, 771.0, 771.0, 769.0, 769.0, 768.0, 769.0, 769.0, 768.0, 769.0, 769.0, 769.0, 770.0, 769.0, 769.0, 770.0, 768.0, 769.0, 768.0, 769.0, 769.0, 769.0]
    },
    "slices": {}
  }
}