{
  "AcquisitionMatrixPE": 96,
  "AcquisitionNumber": 1,
  "AcquisitionTime": "16:49:12.667500",
  "BandwidthPerPixelPhaseEncode": 18.939,
  "BaseResolution": 96,
  "BodyPartExamined": "BRAIN",
  "ConsistencyInfo": "N4_VE11C_LATEST_20160120",
  "ConversionSoftware": "dcm2niix",
  "ConversionSoftwareVersion": "v1.0.20170923 (OpenJPEG build) GCC6.3.0",
  "DerivedVendorReportedEchoSpacing": 0.000550011,
  "DeviceSerialNumber": "66112",
  "DwellTime": 2.2e-06,
  "EchoTime": 0.033,
  "EchoTrainLength": 96,
  "EffectiveEchoSpacing": 0.000550011,
  "FlipAngle": 59,
  "ImageType": [
    "ORIGINAL",
    "PRIMARY",
    "FMRI",
    "NONE",
    "ND",
    "NORM",
    "MOSAIC"
],
  "InstitutionAddress": "Maynard_3_Hanover_NH_US_03755",
  "InstitutionName": "Dartmouth_College_-_PBS",
  "MagneticFieldStrength": 3,
  "Manufacturer": "Siemens",
  "ManufacturersModelName": "Prisma",
  "Modality": "MR",
  "MultibandAccelerationFactor": 4,
  "PartialFourier": 1,
  "PercentPhaseFOV": 100,
  "PhaseEncodingDirection": "j-",
  "PhaseEncodingSteps": 96,
  "PhaseResolution": 1,
  "ProcedureStepDescription": "Gobbini_Matteo_1038_hyperface",
  "ProtocolName": "func_run-08_task-visualmemory",
  "PulseSequenceDetails": "%SiemensSeq%_ep2d_bold",
  "ReceiveCoilActiveElements": "HEA;HEP",
  "ReceiveCoilName": "Head_32",
  "ReconMatrixPE": 96,
  "RepetitionTime": 1,
  "ScanOptions": "FS",
  "ScanningSequence": "EP",
  "SequenceName": "_epfid2d1_96",
  "SequenceVariant": "SK",
  "SeriesDescription": "func_run-08_task-visualmemory",
  "SliceTiming": [0.735, 0, 0.49, 0.0825, 0.5725, 0.1625, 0.6525, 0.3275, 0.8175, 0.4075, 0.8975, 0.245, 0.735, 0, 0.49, 0.0825, 0.5725, 0.1625, 0.6525, 0.3275, 0.8175, 0.4075, 0.8975, 0.245, 0.735, 0, 0.49, 0.0825, 0.5725, 0.1625, 0.6525, 0.3275, 0.8175, 0.4075, 0.8975, 0.245, 0.735, 0, 0.49, 0.0825, 0.5725, 0.1625, 0.6525, 0.3275, 0.8175, 0.4075, 0.8975, 0.245],
  "SoftwareVersions": "syngo_MR_E11",
  "StationName": "AWP66112",
  "TotalReadoutTime": 0.0522511,
  "dcmmeta_affine": [
    [-2.4993627071380615, -0.05235407128930092, -0.02111014910042286, 128.6347198486328],
    [-0.05297505483031273, 2.498276472091675, 0.07621613144874573, -106.36206817626953],
    [-0.019499504938721657, -0.07664402574300766, 2.498748779296875, -71.9359130859375],
    [0.0, 0.0, 0.0, 1.0]
],
  "dcmmeta_reorient_transform": [
    [0.0, -1.0, 0.0, 95.0],
    [1.0, 0.0, 0.0, 0.0],
    [0.0, 0.0, 1.0, 0.0],
    [0.0, 0.0, 0.0, 1.0]
],
  "dcmmeta_shape": [96, 96, 48, 288],
  "dcmmeta_slice_dim": 2,
  "dcmmeta_version": 0.6,
  "global": {
    "const": {
      "AccessionNumber": "A001160",
      "AcquisitionMatrix": [96, 0, 0, 96],
      "AngioFlag": "N",
      "BitsAllocated": 16,
      "BitsStored": 12,
      "BodyPartExamined": "BRAIN",
      "Columns": 672,
      "EchoNumbers": 1,
      "EchoTime": 33.0,
      "EchoTrainLength": 96,
      "FlipAngle": 59.0,
      "HighBit": 11,
      "ImageOrientationPatient": [0.99974504053256, 0.02119002178883, -0.0077998017372, -0.0209416281383, 0.99931054188531, 0.03065761060169],
      "ImagePositionPatient": [-828.39954590032, -865.73458786616, -95.674718686893],
      "ImageType": [
        "ORIGINAL",
        "PRIMARY",
        "FMRI",
        "NONE",
        "ND",
        "NORM",
        "MOSAIC"
],
      "ImagedNucleus": "1H",
      "ImagingFrequency": 123.252568,
      "InPlanePhaseEncodingDirection": "COL",
      "MRAcquisitionType": "2D",
      "MagneticFieldStrength": 3.0,
      "Manufacturer": "SIEMENS",
      "ManufacturerModelName": "Prisma",
      "Modality": "MR",
      "NumberOfAverages": 1.0,
      "NumberOfPhaseEncodingSteps": 96,
      "PercentPhaseFieldOfView": 100.0,
      "PercentSampling": 100.0,
      "PerformedProcedureStepStartTime": "160115.265000",
      "PhotometricInterpretation": "MONOCHROME2",
      "PixelBandwidth": 2365.0,
      "PixelRepresentation": 0,
      "PixelSpacing": [2.5, 2.5],
      "PositionReferenceIndicator": "",
      "ProtocolName": "func_run-08_task-visualmemory",
      "RepetitionTime": 1000.0,
      "Rows": 672,
      "SAR": 0.06517386379088,
      "SamplesPerPixel": 1,
      "ScanOptions": "FS",
      "ScanningSequence": "EP",
      "SequenceName": "*epfid2d1_96",
      "SequenceVariant": "SK",
      "SeriesDescription": "func_run-08_task-visualmemory",
      "SeriesNumber": 56,
      "SeriesTime": "164913.821000",
      "SliceLocation": -76.228712353204,
      "SliceThickness": 2.5,
      "SmallestImagePixelValue": 0,
      "SoftwareVersions": "syngo MR E11",
      "SpacingBetweenSlices": 2.4999999997675,
      "SpecificCharacterSet": "ISO_IR 100",
      "StudyID": "3",
      "StudyTime": "160115.224000",
      "TransmitCoilName": "Body",
      "VariableFlipAngleFlag": "N",
      "WindowCenterWidthExplanation": "Algo1",
      "dBdt": 0.0},
    "slices": {}
  },
  "time": {
    "samples": {
      "AcquisitionNumber": [1, 2, 3, 4, 5, 6, 7, 8, 9, 10, 11, 12, 13, 14, 15, 16, 17, 18, 19, 20, 21, 22, 23, 24, 25, 26, 27, 28, 29, 30, 31, 32, 33, 34, 35, 36, 37, 38, 39, 40, 41, 42, 43, 44, 45, 46, 47, 48, 49, 50, 51, 52, 53, 54, 55, 56, 57, 58, 59, 60, 61, 62, 63, 64, 65, 66, 67, 68, 69, 70, 71, 72, 73, 74, 75, 76, 77, 78, 79, 80, 81, 82, 83, 84, 85, 86, 87, 88, 89, 90, 91, 92, 93, 94, 95, 96, 97, 98, 99, 100, 101, 102, 103, 104, 105, 106, 107, 108, 109, 110, 111, 112, 113, 114, 115, 116, 117, 118, 119, 120, 121, 122, 123, 124, 125, 126, 127, 128, 129, 130, 131, 132, 133, 134, 135, 136, 137, 138, 139, 140, 141, 142, 143, 144, 145, 146, 147, 148, 149, 150, 151, 152, 153, 154, 155, 156, 157, 158, 159, 160, 161, 162, 163, 164, 165, 166, 167, 168, 169, 170, 171, 172, 173, 174, 175, 176, 177, 178, 179, 180, 181, 182, 183, 184, 185, 186, 187, 188, 189, 190, 191, 192, 193, 194, 195, 196, 197, 198, 199, 200, 201, 202, 203, 204, 205, 206, 207, 208, 209, 210, 211, 212, 213, 214, 215, 216, 217, 218, 219, 220, 221, 222, 223, 224, 225, 226, 227, 228, 229, 230, 231, 232, 233, 234, 235, 236, 237, 238, 239, 240, 241, 242, 243, 244, 245, 246, 247, 248, 249, 250, 251, 252, 253, 254, 255, 256, 257, 258, 259, 260, 261, 262, 263, 264, 265, 266, 267, 268, 269, 270, 271, 272, 273, 274, 275, 276, 277, 278, 279, 280, 281, 282, 283, 284, 285, 286, 287, 288],
      "AcquisitionTime": ["164912.667500", "164913.667500", "164914.667500", "164915.667500", "164916.667500", "164917.667500", "164918.667500", "164919.667500", "164920.667500", "164921.667500", "164922.667500", "164923.667500", "164924.667500", "164925.667500", "164926.667500", "164927.667500", "164928.667500", "164929.667500", "164930.667500", "164931.667500", "164932.667500", "164933.667500", "164934.667500", "164935.667500", "164936.667500", "164937.667500", "164938.667500", "164939.667500", "164940.667500", "164941.667500", "164942.667500", "164943.667500", "164944.667500", "164945.667500", "164946.667500", "164947.667500", "164948.667500", "164949.667500", "164950.667500", "164951.667500", "164952.667500", "164953.667500", "164954.667500", "164955.667500", "164956.667500", "164957.667500", "164958.667500", "164959.667500", "165000.667500", "165001.667500", "165002.667500", "165003.667500", "165004.667500", "165005.667500", "165006.667500", "165007.667500", "165008.667500", "165009.667500", "165010.667500", "165011.667500", "165012.667500", "165013.667500", "165014.667500", "165015.667500", "165016.667500", "165017.667500", "165018.667500", "165019.667500", "165020.667500", "165021.667500", "165022.667500", "165023.667500", "165024.667500", "165025.667500", "165026.667500", "165027.667500", "165028.667500", "165029.667500", "165030.667500", "165031.667500", "165032.667500", "165033.667500", "165034.667500", "165035.667500", "165036.667500", "165037.667500", "165038.667500", "165039.667500", "165040.667500", "165041.667500", "165042.667500", "165043.667500", "165044.667500", "165045.667500", "165046.667500", "165047.667500", "165048.667500", "165049.667500", "165050.667500", "165051.667500", "165052.667500", "165053.667500", "165054.667500", "165055.667500", "165056.667500", "165057.667500", "165058.667500", "165059.667500", "165100.667500", "165101.667500", "165102.667500", "165103.667500", "165104.667500", "165105.667500", "165106.667500", "165107.667500", "165108.667500", "165109.667500", "165110.667500", "165111.667500", "165112.667500", "165113.667500", "165114.667500", "165115.667500", "165116.667500", "165117.667500", "165118.667500", "165119.667500", "165120.667500", "165121.667500", "165122.667500", "165123.667500", "165124.667500", "165125.667500", "165126.667500", "165127.667500", "165128.667500", "165129.667500", "165130.667500", "165131.667500", "165132.667500", "165133.667500", "165134.667500", "165135.667500", "165136.667500", "165137.667500", "165138.667500", "165139.667500", "165140.667500", "165141.667500", "165142.667500", "165143.667500", "165144.667500", "165145.667500", "165146.667500", "165147.667500", "165148.667500", "165149.667500", "165150.667500", "165151.667500", "165152.667500", "165153.667500", "165154.667500", "165155.667500", "165156.667500", "165157.667500", "165158.667500", "165159.667500", "165200.667500", "165201.667500", "165202.667500", "165203.667500", "165204.667500", "165205.667500", "165206.667500", "165207.667500", "165208.667500", "165209.667500", "165210.667500", "165211.667500", "165212.667500", "165213.667500", "165214.667500", "165215.667500", "165216.667500", "165217.667500", "165218.667500", "165219.667500", "165220.667500", "165221.667500", "165222.667500", "165223.667500", "165224.667500", "165225.667500", "165226.667500", "165227.667500", "165228.667500", "165229.667500", "165230.667500", "165231.667500", "165232.667500", "165233.667500", "165234.667500", "165235.667500", "165236.667500", "165237.667500", "165238.667500", "165239.667500", "165240.667500", "165241.667500", "165242.667500", "165243.667500", "165244.667500", "165245.667500", "165246.667500", "165247.667500", "165248.667500", "165249.667500", "165250.667500", "165251.667500", "165252.667500", "165253.667500", "165254.667500", "165255.667500", "165256.667500", "165257.667500", "165258.667500", "165259.667500", "165300.667500", "165301.667500", "165302.667500", "165303.667500", "165304.667500", "165305.667500", "165306.667500", "165307.667500", "165308.667500", "165309.667500", "165310.667500", "165311.667500", "165312.667500", "165313.667500", "165314.667500", "165315.667500", "165316.667500", "165317.667500", "165318.667500", "165319.667500", "165320.667500", "165321.667500", "165322.667500", "165323.667500", "165324.667500", "165325.667500", "165326.667500", "165327.667500", "165328.667500", "165329.667500", "165330.667500", "165331.667500", "165332.667500", "165333.667500", "165334.667500", "165335.667500", "165336.667500", "165337.667500", "165338.667500", "165339.667500", "165340.667500", "165341.667500", "165342.667500", "165343.667500", "165344.667500", "165345.667500", "165346.667500", "165347.667500", "165348.667500", "165349.667500", "165350.667500", "165351.667500", "165352.667500", "165353.667500", "165354.667500", "165355.667500", "165356.667500", "165357.667500", "165358.667500", "165359.667500"],
      "ContentTime": ["164913.825000", "164914.662000", "164915.675000", "164916.626000", "164917.640000", "164918.640000", "164919.670000", "164920.686000", "164921.663000", "164922.703000", "164923.639000", "164924.679000", "164925.666000", "164926.665000", "164927.657000", "164928.668000", "164929.668000", "164930.650000", "164931.691000", "164932.660000", "164933.717000", "164934.643000", "164935.652000", "164936.651000", "164937.652000", "164938.654000", "164939.665000", "164940.681000", "164941.667000", "164942.691000", "164943.658000", "164944.660000", "164945.672000", "164946.660000", "164947.670000", "164948.666000", "164949.655000", "164950.641000", "164951.641000", "164952.649000", "164953.654000", "164954.638000", "164955.653000", "164956.684000", "164957.669000", "164958.655000", "164959.640000", "165000.667000", "165001.673000", "165002.660000", "165003.699000", "165004.662000", "165005.663000", "165006.674000", "165007.659000", "165008.645000", "165009.671000", "165010.666000", "165011.668000", "165012.678000", "165013.648000", "165014.690000", "165015.697000", "165016.644000", "165017.650000", "165018.659000", "165019.653000", "165020.666000", "165021.645000", "165022.657000", "165023.668000", "165024.652000", "165025.652000", "165026.688000", "165027.730000", "165028.639000", "165029.658000", "165030.676000", "165031.655000", "165032.684000", "165033.689000", "165034.643000", "165035.665000", "165036.685000", "165037.637000", "165038.684000", "165039.678000", "165040.659000", "165041.666000", "165042.640000", "165043.713000", "165044.649000", "165045.661000", "165046.654000", "165047.652000", "165048.646000", "165049.660000", "165050.644000", "165051.673000", "165052.662000", "165053.682000", "165054.642000", "165055.696000", "165056.642000", "165057.668000", "165058.655000", "165059.661000", "165100.671000", "165101.675000", "165102.641000", "165103.723000", "165104.643000", "165105.660000", "165106.656000", "165107.656000", "165108.676000", "165109.670000", "165110.671000", "165111.657000", "165112.650000", "165113.655000", "165114.662000", "165115.648000", "165116.656000", "165117.678000", "165118.717000", "165119.666000", "165120.673000", "165121.681000", "165122.656000", "165123.680000", "165124.692000", "165125.657000", "165126.656000", "165127.653000", "165128.670000", "165129.669000", "165130.667000", "165131.655000", "165132.676000", "165133.668000", "165134.726000", "165135.659000", "165136.670000", "165137.757000", "165138.667000", "165139.673000", "165140.646000", "165141.630000", "165142.660000", "165143.654000", "165144.646000", "165145.633000", "165146.633000", "165147.646000", "165148.655000", "165149.660000", "165150.664000", "165151.694000", "165152.677000", "165153.657000", "165154.684000", "165155.658000", "165156.663000", "165157.674000", "165158.681000", "165159.695000", "165200.672000", "165201.641000", "165202.678000", "165203.672000", "165204.647000", "165205.658000", "165206.659000", "165207.685000", "165208.646000", "165209.682000", "165210.655000", "165211.665000", "165212.657000", "165213.670000", "165214.668000", "165215.706000", "165216.670000", "165217.665000", "165218.672000", "165219.665000", "165220.669000", "165221.674000", "165222.647000", "165223.662000", "165224.667000", "165225.657000", "165226.666000", "165227.687000", "165228.701000", "165229.650000", "165230.626000", "165231.640000", "165232.622000", "165233.675000", "165234.659000", "165235.641000", "165236.661000", "165237.665000", "165238.673000", "165239.666000", "165240.670000", "165241.663000", "165242.662000", "165243.674000", "165244.670000", "165245.662000", "165246.658000", "165247.655000", "165248.648000", "165249.671000", "165250.668000", "165251.675000", "165252.668000", "165253.629000", "165254.687000", "165255.692000", "165256.704000", "165257.695000", "165258.653000", "165259.659000", "165300.686000", "165301.652000", "165302.668000", "165303.654000", "165304.667000", "165305.670000", "165306.670000", "165307.669000", "165308.710000", "165309.667000", "165310.684000", "165311.627000", "165312.648000", "165313.641000", "165314.649000", "165315.649000", "165316.629000", "165317.672000", "165318.673000", "165319.661000", "165320.684000", "165321.644000", "165322.648000", "165323.645000", "165324.680000", "165325.642000", "165326.659000", "165327.656000", "165328.671000", "165329.666000", "165330.654000", "165331.695000", "165332.655000", "165333.659000", "165334.678000", "165335.673000", "165336.666000", "165337.706000", "165338.659000", "165339.665000", "165340.665000", "165341.660000", "165342.675000", "165343.671000", "165344.689000", "165345.694000", "165346.701000", "165347.696000", "165348.671000", "165349.629000", "165350.659000", "165351.664000", "165352.681000", "165353.695000", "165354.648000", "165355.674000", "165356.670000", "165357.671000", "165358.690000", "165359.667000", "165400.701000"],
      "InstanceCreationTime": ["164913.825000", "164914.662000", "164915.675000", "164916.626000", "164917.640000", "164918.640000", "164919.670000", "164920.686000", "164921.663000", "164922.703000", "164923.639000", "164924.679000", "164925.666000", "164926.665000", "164927.657000", "164928.668000", "164929.668000", "164930.650000", "164931.691000", "164932.660000", "164933.717000", "164934.643000", "164935.652000", "164936.651000", "164937.652000", "164938.654000", "164939.665000", "164940.681000", "164941.667000", "164942.691000", "164943.658000", "164944.660000", "164945.672000", "164946.660000", "164947.670000", "164948.666000", "164949.655000", "164950.641000", "164951.641000", "164952.649000", "164953.654000", "164954.638000", "164955.653000", "164956.684000", "164957.669000", "164958.655000", "164959.640000", "165000.667000", "165001.673000", "165002.660000", "165003.699000", "165004.662000", "165005.663000", "165006.674000", "165007.659000", "165008.645000", "165009.671000", "165010.666000", "165011.668000", "165012.678000", "165013.648000", "165014.690000", "165015.697000", "165016.644000", "165017.650000", "165018.659000", "165019.653000", "165020.666000", "165021.645000", "165022.657000", "165023.668000", "165024.652000", "165025.652000", "165026.688000", "165027.730000", "165028.639000", "165029.658000", "165030.676000", "165031.655000", "165032.684000", "165033.689000", "165034.643000", "165035.665000", "165036.685000", "165037.637000", "165038.684000", "165039.678000", "165040.659000", "165041.666000", "165042.640000", "165043.713000", "165044.649000", "165045.661000", "165046.654000", "165047.652000", "165048.646000", "165049.660000", "165050.644000", "165051.673000", "165052.662000", "165053.682000", "165054.642000", "165055.696000", "165056.642000", "165057.668000", "165058.655000", "165059.661000", "165100.671000", "165101.675000", "165102.641000", "165103.723000", "165104.643000", "165105.660000", "165106.656000", "165107.656000", "165108.676000", "165109.670000", "165110.671000", "165111.657000", "165112.650000", "165113.655000", "165114.662000", "165115.648000", "165116.656000", "165117.678000", "165118.717000", "165119.666000", "165120.673000", "165121.681000", "165122.656000", "165123.680000", "165124.692000", "165125.657000", "165126.656000", "165127.653000", "165128.670000", "165129.669000", "165130.667000", "165131.655000", "165132.676000", "165133.668000", "165134.726000", "165135.659000", "165136.670000", "165137.757000", "165138.667000", "165139.673000", "165140.646000", "165141.630000", "165142.660000", "165143.654000", "165144.646000", "165145.633000", "165146.633000", "165147.646000", "165148.655000", "165149.660000", "165150.664000", "165151.694000", "165152.677000", "165153.657000", "165154.684000", "165155.658000", "165156.663000", "165157.674000", "165158.681000", "165159.695000", "165200.672000", "165201.641000", "165202.678000", "165203.672000", "165204.647000", "165205.658000", "165206.659000", "165207.685000", "165208.646000", "165209.682000", "165210.655000", "165211.665000", "165212.657000", "165213.670000", "165214.668000", "165215.706000", "165216.670000", "165217.665000", "165218.672000", "165219.665000", "165220.669000", "165221.674000", "165222.647000", "165223.662000", "165224.667000", "165225.657000", "165226.666000", "165227.687000", "165228.701000", "165229.650000", "165230.626000", "165231.640000", "165232.622000", "165233.675000", "165234.659000", "165235.641000", "165236.661000", "165237.665000", "165238.673000", "165239.666000", "165240.670000", "165241.663000", "165242.662000", "165243.674000", "165244.670000", "165245.662000", "165246.658000", "165247.655000", "165248.648000", "165249.671000", "165250.668000", "165251.675000", "165252.668000", "165253.629000", "165254.687000", "165255.692000", "165256.704000", "165257.695000", "165258.653000", "165259.659000", "165300.686000", "165301.652000", "165302.668000", "165303.654000", "165304.667000", "165305.670000", "165306.670000", "165307.669000", "165308.710000", "165309.667000", "165310.684000", "165311.627000", "165312.648000", "165313.641000", "165314.649000", "165315.649000", "165316.629000", "165317.672000", "165318.673000", "165319.661000", "165320.684000", "165321.644000", "165322.648000", "165323.645000", "165324.680000", "165325.642000", "165326.659000", "165327.656000", "165328.671000", "165329.666000", "165330.654000", "165331.695000", "165332.655000", "165333.659000", "165334.678000", "165335.673000", "165336.666000", "165337.706000", "165338.659000", "165339.665000", "165340.665000", "165341.660000", "165342.675000", "165343.671000", "165344.689000", "165345.694000", "165346.701000", "165347.696000", "165348.671000", "165349.629000", "165350.659000", "165351.664000", "165352.681000", "165353.695000", "165354.648000", "165355.674000", "165356.670000", "165357.671000", "165358.690000", "165359.667000", "165400.701000"],
      "InstanceNumber": [1, 2, 3, 4, 5, 6, 7, 8, 9, 10, 11, 12, 13, 14, 15, 16, 17, 18, 19, 20, 21, 22, 23, 24, 25, 26, 27, 28, 29, 30, 31, 32, 33, 34, 35, 36, 37, 38, 39, 40, 41, 42, 43, 44, 45, 46, 47, 48, 49, 50, 51, 52, 53, 54, 55, 56, 57, 58, 59, 60, 61, 62, 63, 64, 65, 66, 67, 68, 69, 70, 71, 72, 73, 74, 75, 76, 77, 78, 79, 80, 81, 82, 83, 84, 85, 86, 87, 88, 89, 90, 91, 92, 93, 94, 95, 96, 97, 98, 99, 100, 101, 102, 103, 104, 105, 106, 107, 108, 109, 110, 111, 112, 113, 114, 115, 116, 117, 118, 119, 120, 121, 122, 123, 124, 125, 126, 127, 128, 129, 130, 131, 132, 133, 134, 135, 136, 137, 138, 139, 140, 141, 142, 143, 144, 145, 146, 147, 148, 149, 150, 151, 152, 153, 154, 155, 156, 157, 158, 159, 160, 161, 162, 163, 164, 165, 166, 167, 168, 169, 170, 171, 172, 173, 174, 175, 176, 177, 178, 179, 180, 181, 182, 183, 184, 185, 186, 187, 188, 189, 190, 191, 192, 193, 194, 195, 196, 197, 198, 199, 200, 201, 202, 203, 204, 205, 206, 207, 208, 209, 210, 211, 212, 213, 214, 215, 216, 217, 218, 219, 220, 221, 222, 223, 224, 225, 226, 227, 228, 229, 230, 231, 232, 233, 234, 235, 236, 237, 238, 239, 240, 241, 242, 243, 244, 245, 246, 247, 248, 249, 250, 251, 252, 253, 254, 255, 256, 257, 258, 259, 260, 261, 262, 263, 264, 265, 266, 267, 268, 269, 270, 271, 272, 273, 274, 275, 276, 277, 278, 279, 280, 281, 282, 283, 284, 285, 286, 287, 288],
      "LargestImagePixelValue": [762, 826, 1141, 628, 972, 641, 623, 981, 600, 635, 605, 626, 601, 668, 755, 1189, 659, 1113, 604, 725, 613, 658, 620, 828, 610, 813, 647, 731, 1045, 605, 899, 609, 640, 609, 648, 642, 603, 630, 617, 860, 602, 631, 1043, 596, 874, 606, 635, 622, 648, 911, 733, 955, 601, 912, 644, 664, 1296, 785, 997, 650, 1102, 860, 971, 965, 1036, 608, 606, 609, 659, 600, 722, 847, 635, 1145, 655, 831, 635, 608, 781, 607, 844, 602, 683, 605, 644, 717, 638, 749, 814, 602, 639, 634, 621, 828, 599, 952, 635, 659, 615, 605, 659, 618, 984, 615, 839, 625, 777, 639, 599, 637, 611, 1136, 656, 926, 613, 668, 605, 603, 639, 600, 662, 694, 675, 661, 852, 619, 872, 600, 638, 822, 975, 674, 1002, 619, 931, 630, 592, 593, 612, 1091, 621, 869, 743, 609, 1008, 675, 635, 644, 909, 597, 1134, 605, 774, 606, 601, 621, 1090, 605, 859, 621, 594, 634, 595, 798, 604, 810, 608, 686, 646, 604, 692, 610, 668, 604, 852, 608, 1073, 617, 655, 615, 597, 617, 930, 611, 1130, 597, 649, 677, 622, 963, 622, 736, 860, 597, 611, 728, 617, 850, 707, 825, 1263, 802, 827, 617, 605, 648, 636, 722, 694, 1156, 604, 613, 656, 877, 804, 1077, 646, 673, 977, 617, 640, 618, 599, 602, 633, 610, 738, 616, 882, 612, 653, 831, 605, 1052, 647, 756, 614, 606, 621, 678, 643, 633, 944, 609, 977, 608, 625, 629, 603, 655, 605, 624, 633, 1026, 635, 960, 714, 742, 828, 613, 915, 681, 616, 819, 625, 611, 772, 632, 618, 616, 902, 634, 850, 635, 633, 612, 606, 640, 720, 620, 614, 1072, 842, 1141, 1042, 741, 621, 614],
      "WindowCenter": [319.0, 319.0, 320.0, 316.0, 320.0, 316.0, 315.0, 319.0, 315.0, 316.0, 316.0, 316.0, 316.0, 318.0, 319.0, 322.0, 317.0, 321.0, 316.0, 317.0, 316.0, 317.0, 316.0, 319.0, 316.0, 319.0, 316.0, 318.0, 320.0, 316.0, 319.0, 315.0, 316.0, 315.0, 316.0, 316.0, 315.0, 316.0, 316.0, 319.0, 316.0, 317.0, 321.0, 316.0, 320.0, 316.0, 318.0, 318.0, 318.0, 321.0, 318.0, 321.0, 316.0, 320.0, 317.0, 318.0, 322.0, 319.0, 320.0, 317.0, 320.0, 318.0, 320.0, 319.0, 319.0, 314.0, 314.0, 315.0, 317.0, 316.0, 317.0, 319.0, 316.0, 320.0, 316.0, 318.0, 316.0, 315.0, 318.0, 315.0, 318.0, 315.0, 317.0, 315.0, 316.0, 317.0, 316.0, 318.0, 319.0, 316.0, 316.0, 316.0, 316.0, 319.0, 316.0, 320.0, 316.0, 316.0, 315.0, 316.0, 317.0, 316.0, 320.0, 315.0, 318.0, 315.0, 318.0, 316.0, 316.0, 317.0, 317.0, 321.0, 317.0, 320.0, 316.0, 317.0, 315.0, 316.0, 317.0, 316.0, 317.0, 317.0, 317.0, 317.0, 319.0, 316.0, 319.0, 316.0, 317.0, 319.0, 320.0, 317.0, 320.0, 315.0, 319.0, 315.0, 315.0, 315.0, 316.0, 321.0, 316.0, 318.0, 317.0, 316.0, 320.0, 317.0, 316.0, 317.0, 319.0, 315.0, 320.0, 315.0, 317.0, 315.0, 315.0, 315.0, 320.0, 315.0, 318.0, 315.0, 315.0, 315.0, 315.0, 319.0, 316.0, 318.0, 315.0, 317.0, 316.0, 315.0, 318.0, 317.0, 318.0, 317.0, 320.0, 316.0, 321.0, 316.0, 317.0, 316.0, 316.0, 317.0, 321.0, 317.0, 321.0, 316.0, 317.0, 318.0, 318.0, 321.0, 318.0, 319.0, 319.0, 316.0, 316.0, 317.0, 316.0, 319.0, 317.0, 318.0, 321.0, 318.0, 318.0, 315.0, 315.0, 315.0, 315.0, 317.0, 317.0, 321.0, 315.0, 315.0, 315.0, 318.0, 317.0, 319.0, 315.0, 314.0, 317.0, 314.0, 314.0, 315.0, 315.0, 316.0, 317.0, 316.0, 319.0, 317.0, 319.0, 316.0, 317.0, 319.0, 317.0, 321.0, 317.0, 319.0, 316.0, 316.0, 316.0, 317.0, 317.0, 316.0, 320.0, 316.0, 320.0, 316.0, 316.0, 316.0, 316.0, 318.0, 318.0, 319.0, 318.0, 322.0, 318.0, 321.0, 318.0, 319.0, 319.0, 317.0, 320.0, 318.0, 316.0, 319.0, 315.0, 316.0, 319.0, 316.0, 316.0, 316.0, 320.0, 316.0, 318.0, 316.0, 316.0, 315.0, 316.0, 317.0, 319.0, 317.0, 317.0, 321.0, 319.0, 321.0, 320.0, 317.0, 315.0, 316.0],
      "WindowWidth": [691.0, 690.0, 691.0, 685.0, 690.0, 686.0, 685.0, 689.0, 685.0, 686.0, 685.0, 687.0, 686.0, 689.0, 690.0, 694.0, 687.0, 692.0, 686.0, 688.0, 686.0, 687.0, 686.0, 689.0, 686.0, 689.0, 686.0, 688.0, 690.0, 685.0, 689.0, 684.0, 686.0, 685.0, 686.0, 686.0, 685.0, 686.0, 686.0, 690.0, 687.0, 688.0, 693.0, 687.0, 691.0, 687.0, 689.0, 689.0, 689.0, 693.0, 689.0, 692.0, 687.0, 691.0, 688.0, 689.0, 695.0, 690.0, 692.0, 687.0, 691.0, 689.0, 691.0, 689.0, 689.0, 683.0, 682.0, 685.0, 687.0, 686.0, 688.0, 689.0, 686.0, 691.0, 686.0, 689.0, 686.0, 684.0, 688.0, 684.0, 688.0, 684.0, 686.0, 685.0, 686.0, 688.0, 686.0, 689.0, 689.0, 685.0, 686.0, 686.0, 686.0, 690.0, 686.0, 691.0, 686.0, 686.0, 685.0, 685.0, 687.0, 686.0, 692.0, 685.0, 689.0, 685.0, 688.0, 686.0, 685.0, 687.0, 688.0, 693.0, 687.0, 691.0, 686.0, 687.0, 685.0, 686.0, 687.0, 686.0, 688.0, 688.0, 688.0, 687.0, 690.0, 686.0, 690.0, 686.0, 688.0, 691.0, 692.0, 687.0, 691.0, 685.0, 689.0, 685.0, 684.0, 684.0, 686.0, 692.0, 686.0, 689.0, 687.0, 685.0, 691.0, 687.0, 687.0, 687.0, 690.0, 685.0, 691.0, 684.0, 687.0, 683.0, 684.0, 685.0, 691.0, 684.0, 688.0, 684.0, 684.0, 685.0, 685.0, 689.0, 685.0, 689.0, 685.0, 687.0, 686.0, 685.0, 689.0, 687.0, 688.0, 688.0, 691.0, 687.0, 693.0, 687.0, 688.0, 686.0, 687.0, 688.0, 692.0, 688.0, 693.0, 686.0, 687.0, 688.0, 689.0, 694.0, 689.0, 690.0, 690.0, 686.0, 686.0, 688.0, 686.0, 690.0, 686.0, 689.0, 692.0, 688.0, 687.0, 683.0, 683.0, 685.0, 684.0, 688.0, 688.0, 692.0, 684.0, 684.0, 684.0, 688.0, 686.0, 688.0, 683.0, 682.0, 686.0, 682.0, 682.0, 683.0, 684.0, 686.0, 687.0, 687.0, 690.0, 688.0, 690.0, 686.0, 688.0, 690.0, 688.0, 692.0, 688.0, 690.0, 686.0, 687.0, 687.0, 687.0, 687.0, 686.0, 691.0, 685.0, 691.0, 686.0, 687.0, 686.0, 687.0, 688.0, 689.0, 690.0, 690.0, 695.0, 689.0, 692.0, 690.0, 690.0, 691.0, 688.0, 691.0, 688.0, 686.0, 689.0, 685.0, 686.0, 689.0, 686.0, 686.0, 686.0, 691.0, 686.0, 689.0, 686.0, 686.0, 685.0, 687.0, 687.0, 690.0, 688.0, 688.0, 693.0, 690.0, 693.0, 690.0, 687.0, 685.0, 685.0]
    },
    "slices": {}
  }
}