{
  "AcquisitionMatrixPE": 96,
  "AcquisitionNumber": 1,
  "AcquisitionTime": "16:43:34.752500",
  "BandwidthPerPixelPhaseEncode": 18.939,
  "BaseResolution": 96,
  "BodyPartExamined": "BRAIN",
  "ConsistencyInfo": "N4_VE11C_LATEST_20160120",
  "ConversionSoftware": "dcm2niix",
  "ConversionSoftwareVersion": "v1.0.20170923 (OpenJPEG build) GCC6.3.0",
  "DerivedVendorReportedEchoSpacing": 0.000550011,
  "DeviceSerialNumber": "66112",
  "DwellTime": 2.2e-06,
  "EchoTime": 0.033,
  "EchoTrainLength": 96,
  "EffectiveEchoSpacing": 0.000550011,
  "FlipAngle": 59,
  "ImageType": [
    "ORIGINAL",
    "PRIMARY",
    "FMRI",
    "NONE",
    "ND",
    "NORM",
    "MOSAIC"
  ],
  "InstitutionAddress": "Maynard_3_Hanover_NH_US_03755",
  "InstitutionName": "Dartmouth_College_-_PBS",
  "MagneticFieldStrength": 3,
  "Manufacturer": "Siemens",
  "ManufacturersModelName": "Prisma",
  "Modality": "MR",
  "MultibandAccelerationFactor": 4,
  "PercentPhaseFOV": 100,
  "PhaseEncodingDirection": "j-",
  "PhaseEncodingSteps": 96,
  "PhaseResolution": 1,
  "ProcedureStepDescription": "Gobbini_Matteo_1038_hyperface",
  "ProtocolName": "func_run-07_task-visualmemory",
  "PulseSequenceDetails": "%SiemensSeq%_ep2d_bold",
  "ReceiveCoilActiveElements": "HEA;HEP",
  "ReceiveCoilName": "Head_32",
  "ReconMatrixPE": 96,
  "RepetitionTime": 1,
  "ScanOptions": "FS",
  "ScanningSequence": "EP",
  "SequenceName": "_epfid2d1_96",
  "SequenceVariant": "SK",
  "SeriesDescription": "func_run-07_task-visualmemory",
  "SliceTiming": [
    0.735,
    0,
    0.49,
    0.0825,
    0.5725,
    0.1625,
    0.6525,
    0.3275,
    0.8175,
    0.4075,
    0.8975,
    0.245,
    0.735,
    0,
    0.49,
    0.0825,
    0.5725,
    0.1625,
    0.6525,
    0.3275,
    0.8175,
    0.4075,
    0.8975,
    0.245,
    0.735,
    0,
    0.49,
    0.0825,
    0.5725,
    0.1625,
    0.6525,
    0.3275,
    0.8175,
    0.4075,
    0.8975,
    0.245,
    0.735,
    0,
    0.49,
    0.0825,
    0.5725,
    0.1625,
    0.6525,
    0.3275,
    0.8175,
    0.4075,
    0.8975,
    0.245
  ],
  "SoftwareVersions": "syngo_MR_E11",
  "StationName": "AWP66112",
  "TotalReadoutTime": 0.0522511,
  "dcmmeta_affine": [
    [
      -2.4993627071380615,
      -0.05235407128930092,
      -0.02111014910042286,
      128.6347198486328
    ],
    [
      -0.05297505483031273,
      2.498276472091675,
      0.07621613144874573,
      -106.36206817626953
    ],
    [
      -0.019499504938721657,
      -0.07664402574300766,
      2.498748779296875,
      -71.9359130859375
    ],
    [
      0.0,
      0.0,
      0.0,
      1.0
    ]
  ],
  "dcmmeta_reorient_transform": [
    [
      0.0,
      -1.0,
      0.0,
      95.0
    ],
    [
      1.0,
      0.0,
      0.0,
      0.0
    ],
    [
      0.0,
      0.0,
      1.0,
      0.0
    ],
    [
      0.0,
      0.0,
      0.0,
      1.0
    ]
  ],
  "dcmmeta_shape": [
    96,
    96,
    48,
    288
  ],
  "dcmmeta_slice_dim": 2,
  "dcmmeta_version": 0.6,
  "global": {
    "const": {
      "AccessionNumber": "A001160",
      "AcquisitionMatrix": [
        96,
        0,
        0,
        96
      ],
      "AngioFlag": "N",
      "BitsAllocated": 16,
      "BitsStored": 12,
      "BodyPartExamined": "BRAIN",
      "Columns": 672,
      "EchoNumbers": 1,
      "EchoTime": 33.0,
      "EchoTrainLength": 96,
      "FlipAngle": 59.0,
      "HighBit": 11,
      "ImageOrientationPatient": [
        0.99974504053256,
        0.02119002178883,
        -0.0077998017372,
        -0.0209416281383,
        0.99931054188531,
        0.03065761060169
      ],
      "ImagePositionPatient": [
        -828.39954590032,
        -865.73458786616,
        -95.674718686893
      ],
      "ImageType": [
        "ORIGINAL",
        "PRIMARY",
        "FMRI",
        "NONE",
        "ND",
        "NORM",
        "MOSAIC"
      ],
      "ImagedNucleus": "1H",
      "ImagingFrequency": 123.252568,
      "InPlanePhaseEncodingDirection": "COL",
      "MRAcquisitionType": "2D",
      "MagneticFieldStrength": 3.0,
      "Manufacturer": "SIEMENS",
      "ManufacturerModelName": "Prisma",
      "Modality": "MR",
      "NumberOfAverages": 1.0,
      "NumberOfPhaseEncodingSteps": 96,
      "PercentPhaseFieldOfView": 100.0,
      "PercentSampling": 100.0,
      "PerformedProcedureStepStartTime": "160115.265000",
      "PhotometricInterpretation": "MONOCHROME2",
      "PixelBandwidth": 2365.0,
      "PixelRepresentation": 0,
      "PixelSpacing": [
        2.5,
        2.5
      ],
      "PositionReferenceIndicator": "",
      "ProtocolName": "func_run-07_task-visualmemory",
      "RepetitionTime": 1000.0,
      "Rows": 672,
      "SAR": 0.06517386379088,
      "SamplesPerPixel": 1,
      "ScanOptions": "FS",
      "ScanningSequence": "EP",
      "SequenceName": "*epfid2d1_96",
      "SequenceVariant": "SK",
      "SeriesDescription": "func_run-07_task-visualmemory",
      "SeriesNumber": 49,
      "SeriesTime": "164335.671000",
      "SliceLocation": -76.228712353204,
      "SliceThickness": 2.5,
      "SmallestImagePixelValue": 0,
      "SoftwareVersions": "syngo MR E11",
      "SpacingBetweenSlices": 2.4999999997675,
      "SpecificCharacterSet": "ISO_IR 100",
      "StudyID": "3",
      "StudyTime": "160115.224000",
      "TransmitCoilName": "Body",
      "VariableFlipAngleFlag": "N",
      "WindowCenterWidthExplanation": "Algo1",
      "dBdt": 0.0
    },
    "slices": {}
  },
  "time": {
    "samples": {
      "AcquisitionNumber": [
        1,
        2,
        3,
        4,
        5,
        6,
        7,
        8,
        9,
        10,
        11,
        12,
        13,
        14,
        15,
        16,
        17,
        18,
        19,
        20,
        21,
        22,
        23,
        24,
        25,
        26,
        27,
        28,
        29,
        30,
        31,
        32,
        33,
        34,
        35,
        36,
        37,
        38,
        39,
        40,
        41,
        42,
        43,
        44,
        45,
        46,
        47,
        48,
        49,
        50,
        51,
        52,
        53,
        54,
        55,
        56,
        57,
        58,
        59,
        60,
        61,
        62,
        63,
        64,
        65,
        66,
        67,
        68,
        69,
        70,
        71,
        72,
        73,
        74,
        75,
        76,
        77,
        78,
        79,
        80,
        81,
        82,
        83,
        84,
        85,
        86,
        87,
        88,
        89,
        90,
        91,
        92,
        93,
        94,
        95,
        96,
        97,
        98,
        99,
        100,
        101,
        102,
        103,
        104,
        105,
        106,
        107,
        108,
        109,
        110,
        111,
        112,
        113,
        114,
        115,
        116,
        117,
        118,
        119,
        120,
        121,
        122,
        123,
        124,
        125,
        126,
        127,
        128,
        129,
        130,
        131,
        132,
        133,
        134,
        135,
        136,
        137,
        138,
        139,
        140,
        141,
        142,
        143,
        144,
        145,
        146,
        147,
        148,
        149,
        150,
        151,
        152,
        153,
        154,
        155,
        156,
        157,
        158,
        159,
        160,
        161,
        162,
        163,
        164,
        165,
        166,
        167,
        168,
        169,
        170,
        171,
        172,
        173,
        174,
        175,
        176,
        177,
        178,
        179,
        180,
        181,
        182,
        183,
        184,
        185,
        186,
        187,
        188,
        189,
        190,
        191,
        192,
        193,
        194,
        195,
        196,
        197,
        198,
        199,
        200,
        201,
        202,
        203,
        204,
        205,
        206,
        207,
        208,
        209,
        210,
        211,
        212,
        213,
        214,
        215,
        216,
        217,
        218,
        219,
        220,
        221,
        222,
        223,
        224,
        225,
        226,
        227,
        228,
        229,
        230,
        231,
        232,
        233,
        234,
        235,
        236,
        237,
        238,
        239,
        240,
        241,
        242,
        243,
        244,
        245,
        246,
        247,
        248,
        249,
        250,
        251,
        252,
        253,
        254,
        255,
        256,
        257,
        258,
        259,
        260,
        261,
        262,
        263,
        264,
        265,
        266,
        267,
        268,
        269,
        270,
        271,
        272,
        273,
        274,
        275,
        276,
        277,
        278,
        279,
        280,
        281,
        282,
        283,
        284,
        285,
        286,
        287,
        288
      ],
      "AcquisitionTime": [
        "164334.752500",
        "164335.752500",
        "164336.752500",
        "164337.752500",
        "164338.752500",
        "164339.752500",
        "164340.752500",
        "164341.752500",
        "164342.752500",
        "164343.752500",
        "164344.752500",
        "164345.752500",
        "164346.752500",
        "164347.752500",
        "164348.752500",
        "164349.752500",
        "164350.752500",
        "164351.752500",
        "164352.752500",
        "164353.752500",
        "164354.752500",
        "164355.752500",
        "164356.752500",
        "164357.752500",
        "164358.752500",
        "164359.752500",
        "164400.752500",
        "164401.752500",
        "164402.752500",
        "164403.752500",
        "164404.752500",
        "164405.752500",
        "164406.752500",
        "164407.752500",
        "164408.752500",
        "164409.752500",
        "164410.752500",
        "164411.752500",
        "164412.752500",
        "164413.752500",
        "164414.752500",
        "164415.752500",
        "164416.752500",
        "164417.752500",
        "164418.752500",
        "164419.752500",
        "164420.752500",
        "164421.752500",
        "164422.752500",
        "164423.752500",
        "164424.752500",
        "164425.752500",
        "164426.752500",
        "164427.752500",
        "164428.752500",
        "164429.752500",
        "164430.752500",
        "164431.752500",
        "164432.752500",
        "164433.752500",
        "164434.752500",
        "164435.752500",
        "164436.752500",
        "164437.752500",
        "164438.752500",
        "164439.752500",
        "164440.752500",
        "164441.752500",
        "164442.752500",
        "164443.752500",
        "164444.752500",
        "164445.752500",
        "164446.752500",
        "164447.752500",
        "164448.752500",
        "164449.752500",
        "164450.752500",
        "164451.752500",
        "164452.752500",
        "164453.752500",
        "164454.752500",
        "164455.752500",
        "164456.752500",
        "164457.752500",
        "164458.752500",
        "164459.752500",
        "164500.752500",
        "164501.752500",
        "164502.752500",
        "164503.752500",
        "164504.752500",
        "164505.752500",
        "164506.752500",
        "164507.752500",
        "164508.752500",
        "164509.752500",
        "164510.752500",
        "164511.752500",
        "164512.752500",
        "164513.752500",
        "164514.752500",
        "164515.752500",
        "164516.752500",
        "164517.752500",
        "164518.752500",
        "164519.752500",
        "164520.752500",
        "164521.752500",
        "164522.752500",
        "164523.752500",
        "164524.752500",
        "164525.752500",
        "164526.752500",
        "164527.752500",
        "164528.752500",
        "164529.752500",
        "164530.752500",
        "164531.752500",
        "164532.752500",
        "164533.752500",
        "164534.752500",
        "164535.752500",
        "164536.752500",
        "164537.752500",
        "164538.752500",
        "164539.752500",
        "164540.752500",
        "164541.752500",
        "164542.752500",
        "164543.752500",
        "164544.752500",
        "164545.752500",
        "164546.752500",
        "164547.752500",
        "164548.752500",
        "164549.752500",
        "164550.752500",
        "164551.752500",
        "164552.752500",
        "164553.752500",
        "164554.752500",
        "164555.752500",
        "164556.752500",
        "164557.752500",
        "164558.752500",
        "164559.752500",
        "164600.752500",
        "164601.752500",
        "164602.752500",
        "164603.752500",
        "164604.752500",
        "164605.752500",
        "164606.752500",
        "164607.752500",
        "164608.752500",
        "164609.752500",
        "164610.752500",
        "164611.752500",
        "164612.752500",
        "164613.752500",
        "164614.752500",
        "164615.752500",
        "164616.752500",
        "164617.752500",
        "164618.752500",
        "164619.752500",
        "164620.752500",
        "164621.752500",
        "164622.752500",
        "164623.752500",
        "164624.752500",
        "164625.752500",
        "164626.752500",
        "164627.752500",
        "164628.752500",
        "164629.752500",
        "164630.752500",
        "164631.752500",
        "164632.752500",
        "164633.752500",
        "164634.752500",
        "164635.752500",
        "164636.752500",
        "164637.752500",
        "164638.752500",
        "164639.752500",
        "164640.752500",
        "164641.752500",
        "164642.752500",
        "164643.752500",
        "164644.752500",
        "164645.752500",
        "164646.752500",
        "164647.752500",
        "164648.752500",
        "164649.752500",
        "164650.752500",
        "164651.752500",
        "164652.752500",
        "164653.752500",
        "164654.752500",
        "164655.752500",
        "164656.752500",
        "164657.752500",
        "164658.752500",
        "164659.752500",
        "164700.752500",
        "164701.752500",
        "164702.752500",
        "164703.752500",
        "164704.752500",
        "164705.752500",
        "164706.752500",
        "164707.752500",
        "164708.752500",
        "164709.752500",
        "164710.752500",
        "164711.752500",
        "164712.752500",
        "164713.752500",
        "164714.752500",
        "164715.752500",
        "164716.752500",
        "164717.752500",
        "164718.752500",
        "164719.752500",
        "164720.752500",
        "164721.752500",
        "164722.752500",
        "164723.752500",
        "164724.752500",
        "164725.752500",
        "164726.752500",
        "164727.752500",
        "164728.752500",
        "164729.752500",
        "164730.752500",
        "164731.752500",
        "164732.752500",
        "164733.752500",
        "164734.752500",
        "164735.752500",
        "164736.752500",
        "164737.752500",
        "164738.752500",
        "164739.752500",
        "164740.752500",
        "164741.752500",
        "164742.752500",
        "164743.752500",
        "164744.752500",
        "164745.752500",
        "164746.752500",
        "164747.752500",
        "164748.752500",
        "164749.752500",
        "164750.752500",
        "164751.752500",
        "164752.752500",
        "164753.752500",
        "164754.752500",
        "164755.752500",
        "164756.752500",
        "164757.752500",
        "164758.752500",
        "164759.752500",
        "164800.752500",
        "164801.752500",
        "164802.752500",
        "164803.752500",
        "164804.752500",
        "164805.752500",
        "164806.752500",
        "164807.752500",
        "164808.752500",
        "164809.752500",
        "164810.752500",
        "164811.752500",
        "164812.752500",
        "164813.752500",
        "164814.752500",
        "164815.752500",
        "164816.752500",
        "164817.752500",
        "164818.752500",
        "164819.752500",
        "164820.752500",
        "164821.752500"
      ],
      "ContentTime": [
        "164335.675000",
        "164336.516000",
        "164337.507000",
        "164338.511000",
        "164339.512000",
        "164340.506000",
        "164341.498000",
        "164342.516000",
        "164343.475000",
        "164344.531000",
        "164345.511000",
        "164346.520000",
        "164347.492000",
        "164348.500000",
        "164349.540000",
        "164350.509000",
        "164351.478000",
        "164352.479000",
        "164353.523000",
        "164354.481000",
        "164355.534000",
        "164356.503000",
        "164357.522000",
        "164358.495000",
        "164359.522000",
        "164400.488000",
        "164401.499000",
        "164402.490000",
        "164403.506000",
        "164404.510000",
        "164405.497000",
        "164406.518000",
        "164407.487000",
        "164408.497000",
        "164409.488000",
        "164410.502000",
        "164411.480000",
        "164412.492000",
        "164413.492000",
        "164414.497000",
        "164415.494000",
        "164416.488000",
        "164417.489000",
        "164418.514000",
        "164419.502000",
        "164420.515000",
        "164421.510000",
        "164422.505000",
        "164423.495000",
        "164424.485000",
        "164425.494000",
        "164426.511000",
        "164427.493000",
        "164428.527000",
        "164429.513000",
        "164430.498000",
        "164431.516000",
        "164432.476000",
        "164433.517000",
        "164434.486000",
        "164435.484000",
        "164436.489000",
        "164437.507000",
        "164438.509000",
        "164439.501000",
        "164440.537000",
        "164441.488000",
        "164442.484000",
        "164443.508000",
        "164444.497000",
        "164445.516000",
        "164446.497000",
        "164447.502000",
        "164448.489000",
        "164449.471000",
        "164450.498000",
        "164451.497000",
        "164452.505000",
        "164453.493000",
        "164454.482000",
        "164455.480000",
        "164456.513000",
        "164457.513000",
        "164458.513000",
        "164459.517000",
        "164500.522000",
        "164501.468000",
        "164502.505000",
        "164503.514000",
        "164504.563000",
        "164505.511000",
        "164506.537000",
        "164507.486000",
        "164508.515000",
        "164509.504000",
        "164510.511000",
        "164511.492000",
        "164512.508000",
        "164513.517000",
        "164514.549000",
        "164515.483000",
        "164516.507000",
        "164517.500000",
        "164518.528000",
        "164519.519000",
        "164520.530000",
        "164521.542000",
        "164522.514000",
        "164523.543000",
        "164524.516000",
        "164525.543000",
        "164526.500000",
        "164527.515000",
        "164528.536000",
        "164529.526000",
        "164530.478000",
        "164531.511000",
        "164532.555000",
        "164533.488000",
        "164534.525000",
        "164535.504000",
        "164536.510000",
        "164537.528000",
        "164538.508000",
        "164539.523000",
        "164540.529000",
        "164541.515000",
        "164542.508000",
        "164543.504000",
        "164544.501000",
        "164545.557000",
        "164546.484000",
        "164547.507000",
        "164548.511000",
        "164549.513000",
        "164550.571000",
        "164551.514000",
        "164552.513000",
        "164553.516000",
        "164554.513000",
        "164555.510000",
        "164556.501000",
        "164557.565000",
        "164558.517000",
        "164559.490000",
        "164600.502000",
        "164601.490000",
        "164602.536000",
        "164603.513000",
        "164604.503000",
        "164605.530000",
        "164606.525000",
        "164607.528000",
        "164608.505000",
        "164609.511000",
        "164610.485000",
        "164611.482000",
        "164612.502000",
        "164613.582000",
        "164614.528000",
        "164615.501000",
        "164616.520000",
        "164617.499000",
        "164618.504000",
        "164619.549000",
        "164620.503000",
        "164621.553000",
        "164622.519000",
        "164623.504000",
        "164624.509000",
        "164625.498000",
        "164626.491000",
        "164627.530000",
        "164628.499000",
        "164629.508000",
        "164630.510000",
        "164631.522000",
        "164632.522000",
        "164633.550000",
        "164634.519000",
        "164635.507000",
        "164636.505000",
        "164637.488000",
        "164638.519000",
        "164639.479000",
        "164640.497000",
        "164641.482000",
        "164642.513000",
        "164643.477000",
        "164644.483000",
        "164645.499000",
        "164646.504000",
        "164647.496000",
        "164648.496000",
        "164649.515000",
        "164650.503000",
        "164651.486000",
        "164652.492000",
        "164653.493000",
        "164654.550000",
        "164655.519000",
        "164656.507000",
        "164657.535000",
        "164658.520000",
        "164659.533000",
        "164700.522000",
        "164701.498000",
        "164702.498000",
        "164703.512000",
        "164704.524000",
        "164705.502000",
        "164706.506000",
        "164707.522000",
        "164708.538000",
        "164709.513000",
        "164710.478000",
        "164711.472000",
        "164712.513000",
        "164713.531000",
        "164714.587000",
        "164715.505000",
        "164716.485000",
        "164717.532000",
        "164718.492000",
        "164719.511000",
        "164720.500000",
        "164721.531000",
        "164722.528000",
        "164723.504000",
        "164724.470000",
        "164725.484000",
        "164726.463000",
        "164727.516000",
        "164728.474000",
        "164729.502000",
        "164730.510000",
        "164731.466000",
        "164732.512000",
        "164733.497000",
        "164734.502000",
        "164735.523000",
        "164736.510000",
        "164737.498000",
        "164738.492000",
        "164739.514000",
        "164740.516000",
        "164741.516000",
        "164742.530000",
        "164743.530000",
        "164744.472000",
        "164745.503000",
        "164746.509000",
        "164747.511000",
        "164748.493000",
        "164749.517000",
        "164750.485000",
        "164751.519000",
        "164752.514000",
        "164753.512000",
        "164754.502000",
        "164755.522000",
        "164756.545000",
        "164757.502000",
        "164758.540000",
        "164759.506000",
        "164800.498000",
        "164801.494000",
        "164802.506000",
        "164803.515000",
        "164804.511000",
        "164805.583000",
        "164806.533000",
        "164807.491000",
        "164808.507000",
        "164809.591000",
        "164810.532000",
        "164811.512000",
        "164812.493000",
        "164813.515000",
        "164814.530000",
        "164815.506000",
        "164816.513000",
        "164817.492000",
        "164818.503000",
        "164819.499000",
        "164820.489000",
        "164821.551000",
        "164822.527000"
      ],
      "InstanceCreationTime": [
        "164335.675000",
        "164336.516000",
        "164337.507000",
        "164338.511000",
        "164339.512000",
        "164340.506000",
        "164341.498000",
        "164342.516000",
        "164343.475000",
        "164344.531000",
        "164345.511000",
        "164346.520000",
        "164347.492000",
        "164348.500000",
        "164349.540000",
        "164350.509000",
        "164351.478000",
        "164352.479000",
        "164353.523000",
        "164354.481000",
        "164355.534000",
        "164356.503000",
        "164357.522000",
        "164358.495000",
        "164359.522000",
        "164400.488000",
        "164401.499000",
        "164402.490000",
        "164403.506000",
        "164404.510000",
        "164405.497000",
        "164406.518000",
        "164407.487000",
        "164408.497000",
        "164409.488000",
        "164410.502000",
        "164411.480000",
        "164412.492000",
        "164413.492000",
        "164414.497000",
        "164415.494000",
        "164416.488000",
        "164417.489000",
        "164418.514000",
        "164419.502000",
        "164420.515000",
        "164421.510000",
        "164422.505000",
        "164423.495000",
        "164424.485000",
        "164425.494000",
        "164426.511000",
        "164427.493000",
        "164428.527000",
        "164429.513000",
        "164430.498000",
        "164431.516000",
        "164432.476000",
        "164433.517000",
        "164434.486000",
        "164435.484000",
        "164436.489000",
        "164437.507000",
        "164438.509000",
        "164439.501000",
        "164440.537000",
        "164441.488000",
        "164442.484000",
        "164443.508000",
        "164444.497000",
        "164445.516000",
        "164446.497000",
        "164447.502000",
        "164448.489000",
        "164449.471000",
        "164450.498000",
        "164451.497000",
        "164452.505000",
        "164453.493000",
        "164454.482000",
        "164455.480000",
        "164456.513000",
        "164457.513000",
        "164458.513000",
        "164459.517000",
        "164500.522000",
        "164501.468000",
        "164502.505000",
        "164503.514000",
        "164504.563000",
        "164505.511000",
        "164506.537000",
        "164507.486000",
        "164508.515000",
        "164509.504000",
        "164510.511000",
        "164511.492000",
        "164512.508000",
        "164513.517000",
        "164514.549000",
        "164515.483000",
        "164516.507000",
        "164517.500000",
        "164518.528000",
        "164519.519000",
        "164520.530000",
        "164521.542000",
        "164522.514000",
        "164523.543000",
        "164524.516000",
        "164525.543000",
        "164526.500000",
        "164527.515000",
        "164528.536000",
        "164529.526000",
        "164530.478000",
        "164531.511000",
        "164532.555000",
        "164533.488000",
        "164534.525000",
        "164535.504000",
        "164536.510000",
        "164537.528000",
        "164538.508000",
        "164539.523000",
        "164540.529000",
        "164541.515000",
        "164542.508000",
        "164543.504000",
        "164544.501000",
        "164545.557000",
        "164546.484000",
        "164547.507000",
        "164548.511000",
        "164549.513000",
        "164550.571000",
        "164551.514000",
        "164552.513000",
        "164553.516000",
        "164554.513000",
        "164555.510000",
        "164556.501000",
        "164557.565000",
        "164558.517000",
        "164559.490000",
        "164600.502000",
        "164601.490000",
        "164602.536000",
        "164603.513000",
        "164604.503000",
        "164605.530000",
        "164606.525000",
        "164607.528000",
        "164608.505000",
        "164609.511000",
        "164610.485000",
        "164611.482000",
        "164612.502000",
        "164613.582000",
        "164614.528000",
        "164615.501000",
        "164616.520000",
        "164617.499000",
        "164618.504000",
        "164619.549000",
        "164620.503000",
        "164621.553000",
        "164622.519000",
        "164623.504000",
        "164624.509000",
        "164625.498000",
        "164626.491000",
        "164627.530000",
        "164628.499000",
        "164629.508000",
        "164630.510000",
        "164631.522000",
        "164632.522000",
        "164633.550000",
        "164634.519000",
        "164635.507000",
        "164636.505000",
        "164637.488000",
        "164638.519000",
        "164639.479000",
        "164640.497000",
        "164641.482000",
        "164642.513000",
        "164643.477000",
        "164644.483000",
        "164645.499000",
        "164646.504000",
        "164647.496000",
        "164648.496000",
        "164649.515000",
        "164650.503000",
        "164651.486000",
        "164652.492000",
        "164653.493000",
        "164654.550000",
        "164655.519000",
        "164656.507000",
        "164657.535000",
        "164658.520000",
        "164659.533000",
        "164700.522000",
        "164701.498000",
        "164702.498000",
        "164703.512000",
        "164704.524000",
        "164705.502000",
        "164706.506000",
        "164707.522000",
        "164708.538000",
        "164709.513000",
        "164710.478000",
        "164711.472000",
        "164712.513000",
        "164713.531000",
        "164714.587000",
        "164715.505000",
        "164716.485000",
        "164717.532000",
        "164718.492000",
        "164719.511000",
        "164720.500000",
        "164721.531000",
        "164722.528000",
        "164723.504000",
        "164724.470000",
        "164725.484000",
        "164726.463000",
        "164727.516000",
        "164728.474000",
        "164729.502000",
        "164730.510000",
        "164731.466000",
        "164732.512000",
        "164733.497000",
        "164734.502000",
        "164735.523000",
        "164736.510000",
        "164737.498000",
        "164738.492000",
        "164739.514000",
        "164740.516000",
        "164741.516000",
        "164742.530000",
        "164743.530000",
        "164744.472000",
        "164745.503000",
        "164746.509000",
        "164747.511000",
        "164748.493000",
        "164749.517000",
