{
  "AcquisitionMatrixPE": 96,
  "AcquisitionNumber": 1,
  "AcquisitionTime": "16:38:12.950000",
  "BandwidthPerPixelPhaseEncode": 18.939,
  "BaseResolution": 96,
  "BodyPartExamined": "BRAIN",
  "ConsistencyInfo": "N4_VE11C_LATEST_20160120",
  "ConversionSoftware": "dcm2niix",
  "ConversionSoftwareVersion": "v1.0.20170923 (OpenJPEG build) GCC6.3.0",
  "DerivedVendorReportedEchoSpacing": 0.000550011,
  "DeviceSerialNumber": "66112",
  "DwellTime": 2.2e-06,
  "EchoTime": 0.033,
  "EchoTrainLength": 96,
  "EffectiveEchoSpacing": 0.000550011,
  "FlipAngle": 59,
  "ImageType": [
    "ORIGINAL",
    "PRIMARY",
    "FMRI",
    "NONE",
    "ND",
    "NORM",
    "MOSAIC"
  ],
  "InstitutionAddress": "Maynard_3_Hanover_NH_US_03755",
  "InstitutionName": "Dartmouth_College_-_PBS",
  "MagneticFieldStrength": 3,
  "Manufacturer": "Siemens",
  "ManufacturersModelName": "Prisma",
  "Modality": "MR",
  "MultibandAccelerationFactor": 4,
  "PercentPhaseFOV": 100,
  "PhaseEncodingDirection": "j-",
  "PhaseEncodingSteps": 96,
  "PhaseResolution": 1,
  "ProcedureStepDescription": "Gobbini_Matteo_1038_hyperface",
  "ProtocolName": "func_run-06_task-visualmemory",
  "PulseSequenceDetails": "%SiemensSeq%_ep2d_bold",
  "ReceiveCoilActiveElements": "HEA;HEP",
  "ReceiveCoilName": "Head_32",
  "ReconMatrixPE": 96,
  "RepetitionTime": 1,
  "ScanOptions": "FS",
  "ScanningSequence": "EP",
  "SequenceName": "_epfid2d1_96",
  "SequenceVariant": "SK",
  "SeriesDescription": "func_run-06_task-visualmemory",
  "SliceTiming": [
    0.735,
    0,
    0.49,
    0.0825,
    0.5725,
    0.1625,
    0.6525,
    0.3275,
    0.8175,
    0.4075,
    0.8975,
    0.245,
    0.735,
    0,
    0.49,
    0.0825,
    0.5725,
    0.1625,
    0.6525,
    0.3275,
    0.8175,
    0.4075,
    0.8975,
    0.245,
    0.735,
    0,
    0.49,
    0.0825,
    0.5725,
    0.1625,
    0.6525,
    0.3275,
    0.8175,
    0.4075,
    0.8975,
    0.245,
    0.735,
    0,
    0.49,
    0.0825,
    0.5725,
    0.1625,
    0.6525,
    0.3275,
    0.8175,
    0.4075,
    0.8975,
    0.245
  ],
  "SoftwareVersions": "syngo_MR_E11",
  "StationName": "AWP66112",
  "TotalReadoutTime": 0.0522511,
  "dcmmeta_affine": [
    [
      -2.4993627071380615,
      -0.05235407128930092,
      -0.02111014910042286,
      128.6347198486328
    ],
    [
      -0.05297505483031273,
      2.498276472091675,
      0.07621613144874573,
      -106.36206817626953
    ],
    [
      -0.019499504938721657,
      -0.07664402574300766,
      2.498748779296875,
      -71.9359130859375
    ],
    [
      0.0,
      0.0,
      0.0,
      1.0
    ]
  ],
  "dcmmeta_reorient_transform": [
    [
      0.0,
      -1.0,
      0.0,
      95.0
    ],
    [
      1.0,
      0.0,
      0.0,
      0.0
    ],
    [
      0.0,
      0.0,
      1.0,
      0.0
    ],
    [
      0.0,
      0.0,
      0.0,
      1.0
    ]
  ],
  "dcmmeta_shape": [
    96,
    96,
    48,
    288
  ],
  "dcmmeta_slice_dim": 2,
  "dcmmeta_version": 0.6,
  "global": {
    "const": {
      "AccessionNumber": "A001160",
      "AcquisitionMatrix": [
        96,
        0,
        0,
        96
      ],
      "AngioFlag": "N",
      "BitsAllocated": 16,
      "BitsStored": 12,
      "BodyPartExamined": "BRAIN",
      "Columns": 672,
      "EchoNumbers": 1,
      "EchoTime": 33.0,
      "EchoTrainLength": 96,
      "FlipAngle": 59.0,
      "HighBit": 11,
      "ImageOrientationPatient": [
        0.99974504053256,
        0.02119002178883,
        -0.0077998017372,
        -0.0209416281383,
        0.99931054188531,
        0.03065761060169
      ],
      "ImagePositionPatient": [
        -828.39954590032,
        -865.73458786616,
        -95.674718686893
      ],
      "ImageType": [
        "ORIGINAL",
        "PRIMARY",
        "FMRI",
        "NONE",
        "ND",
        "NORM",
        "MOSAIC"
      ],
      "ImagedNucleus": "1H",
      "ImagingFrequency": 123.252567,
      "InPlanePhaseEncodingDirection": "COL",
      "MRAcquisitionType": "2D",
      "MagneticFieldStrength": 3.0,
      "Manufacturer": "SIEMENS",
      "ManufacturerModelName": "Prisma",
      "Modality": "MR",
      "NumberOfAverages": 1.0,
      "NumberOfPhaseEncodingSteps": 96,
      "PercentPhaseFieldOfView": 100.0,
      "PercentSampling": 100.0,
      "PerformedProcedureStepStartTime": "160115.265000",
      "PhotometricInterpretation": "MONOCHROME2",
      "PixelBandwidth": 2365.0,
      "PixelRepresentation": 0,
      "PixelSpacing": [
        2.5,
        2.5
      ],
      "PositionReferenceIndicator": "",
      "ProtocolName": "func_run-06_task-visualmemory",
      "RepetitionTime": 1000.0,
      "Rows": 672,
      "SAR": 0.06517386379088,
      "SamplesPerPixel": 1,
      "ScanOptions": "FS",
      "ScanningSequence": "EP",
      "SequenceName": "*epfid2d1_96",
      "SequenceVariant": "SK",
      "SeriesDescription": "func_run-06_task-visualmemory",
      "SeriesNumber": 42,
      "SeriesTime": "163814.501000",
      "SliceLocation": -76.228712353204,
      "SliceThickness": 2.5,
      "SmallestImagePixelValue": 0,
      "SoftwareVersions": "syngo MR E11",
      "SpacingBetweenSlices": 2.4999999997675,
      "SpecificCharacterSet": "ISO_IR 100",
      "StudyID": "3",
      "StudyTime": "160115.224000",
      "TransmitCoilName": "Body",
      "VariableFlipAngleFlag": "N",
      "WindowCenterWidthExplanation": "Algo1",
      "dBdt": 0.0
    },
    "slices": {}
  },
  "time": {
    "samples": {
      "AcquisitionNumber": [
        1,
        2,
        3,
        4,
        5,
        6,
        7,
        8,
        9,
        10,
        11,
        12,
        13,
        14,
        15,
        16,
        17,
        18,
        19,
        20,
        21,
        22,
        23,
        24,
        25,
        26,
        27,
        28,
        29,
        30,
        31,
        32,
        33,
        34,
        35,
        36,
        37,
        38,
        39,
        40,
        41,
        42,
        43,
        44,
        45,
        46,
        47,
        48,
        49,
        50,
        51,
        52,
        53,
        54,
        55,
        56,
        57,
        58,
        59,
        60,
        61,
        62,
        63,
        64,
        65,
        66,
        67,
        68,
        69,
        70,
        71,
        72,
        73,
        74,
        75,
        76,
        77,
        78,
        79,
        80,
        81,
        82,
        83,
        84,
        85,
        86,
        87,
        88,
        89,
        90,
        91,
        92,
        93,
        94,
        95,
        96,
        97,
        98,
        99,
        100,
        101,
        102,
        103,
        104,
        105,
        106,
        107,
        108,
        109,
        110,
        111,
        112,
        113,
        114,
        115,
        116,
        117,
        118,
        119,
        120,
        121,
        122,
        123,
        124,
        125,
        126,
        127,
        128,
        129,
        130,
        131,
        132,
        133,
        134,
        135,
        136,
        137,
        138,
        139,
        140,
        141,
        142,
        143,
        144,
        145,
        146,
        147,
        148,
        149,
        150,
        151,
        152,
        153,
        154,
        155,
        156,
        157,
        158,
        159,
        160,
        161,
        162,
        163,
        164,
        165,
        166,
        167,
        168,
        169,
        170,
        171,
        172,
        173,
        174,
        175,
        176,
        177,
        178,
        179,
        180,
        181,
        182,
        183,
        184,
        185,
        186,
        187,
        188,
        189,
        190,
        191,
        192,
        193,
        194,
        195,
        196,
        197,
        198,
        199,
        200,
        201,
        202,
        203,
        204,
        205,
        206,
        207,
        208,
        209,
        210,
        211,
        212,
        213,
        214,
        215,
        216,
        217,
        218,
        219,
        220,
        221,
        222,
        223,
        224,
        225,
        226,
        227,
        228,
        229,
        230,
        231,
        232,
        233,
        234,
        235,
        236,
        237,
        238,
        239,
        240,
        241,
        242,
        243,
        244,
        245,
        246,
        247,
        248,
        249,
        250,
        251,
        252,
        253,
        254,
        255,
        256,
        257,
        258,
        259,
        260,
        261,
        262,
        263,
        264,
        265,
        266,
        267,
        268,
        269,
        270,
        271,
        272,
        273,
        274,
        275,
        276,
        277,
        278,
        279,
        280,
        281,
        282,
        283,
        284,
        285,
        286,
        287,
        288
      ],
      "AcquisitionTime": [
        "163812.950000",
        "163813.950000",
        "163814.950000",
        "163815.950000",
        "163816.950000",
        "163817.950000",
        "163818.950000",
        "163819.950000",
        "163820.950000",
        "163821.950000",
        "163822.950000",
        "163823.950000",
        "163824.950000",
        "163825.950000",
        "163826.950000",
        "163827.950000",
        "163828.950000",
        "163829.950000",
        "163830.950000",
        "163831.950000",
        "163832.950000",
        "163833.950000",
        "163834.950000",
        "163835.950000",
        "163836.950000",
        "163837.950000",
        "163838.950000",
        "163839.950000",
        "163840.950000",
        "163841.950000",
        "163842.950000",
        "163843.950000",
        "163844.950000",
        "163845.950000",
        "163846.950000",
        "163847.950000",
        "163848.950000",
        "163849.950000",
        "163850.950000",
        "163851.950000",
        "163852.950000",
        "163853.950000",
        "163854.950000",
        "163855.950000",
        "163856.950000",
        "163857.950000",
        "163858.950000",
        "163859.950000",
        "163900.950000",
        "163901.950000",
        "163902.950000",
        "163903.950000",
        "163904.950000",
        "163905.950000",
        "163906.950000",
        "163907.950000",
        "163908.950000",
        "163909.950000",
        "163910.950000",
        "163911.950000",
        "163912.950000",
        "163913.950000",
        "163914.950000",
        "163915.950000",
        "163916.950000",
        "163917.950000",
        "163918.950000",
        "163919.950000",
        "163920.950000",
        "163921.950000",
        "163922.950000",
        "163923.950000",
        "163924.950000",
        "163925.950000",
        "163926.950000",
        "163927.950000",
        "163928.950000",
        "163929.950000",
        "163930.950000",
        "163931.950000",
        "163932.950000",
        "163933.950000",
        "163934.950000",
        "163935.950000",
        "163936.950000",
        "163937.950000",
        "163938.950000",
        "163939.950000",
        "163940.950000",
        "163941.950000",
        "163942.950000",
        "163943.950000",
        "163944.950000",
        "163945.950000",
        "163946.950000",
        "163947.950000",
        "163948.950000",
        "163949.950000",
        "163950.950000",
        "163951.950000",
        "163952.950000",
        "163953.950000",
        "163954.950000",
        "163955.950000",
        "163956.950000",
        "163957.950000",
        "163958.950000",
        "163959.950000",
        "164000.950000",
        "164001.950000",
        "164002.950000",
        "164003.950000",
        "164004.950000",
        "164005.950000",
        "164006.950000",
        "164007.950000",
        "164008.950000",
        "164009.950000",
        "164010.950000",
        "164011.950000",
        "164012.950000",
        "164013.950000",
        "164014.950000",
        "164015.950000",
        "164016.950000",
        "164017.950000",
        "164018.950000",
        "164019.950000",
        "164020.950000",
        "164021.950000",
        "164022.950000",
        "164023.950000",
        "164024.950000",
        "164025.950000",
        "164026.950000",
        "164027.950000",
        "164028.950000",
        "164029.950000",
        "164030.950000",
        "164031.950000",
        "164032.950000",
        "164033.950000",
        "164034.950000",
        "164035.950000",
        "164036.950000",
        "164037.950000",
        "164038.950000",
        "164039.950000",
        "164040.950000",
        "164041.950000",
        "164042.950000",
        "164043.950000",
        "164044.950000",
        "164045.950000",
        "164046.950000",
        "164047.950000",
        "164048.950000",
        "164049.950000",
        "164050.950000",
        "164051.950000",
        "164052.950000",
        "164053.950000",
        "164054.950000",
        "164055.950000",
        "164056.950000",
        "164057.950000",
        "164058.950000",
        "164059.950000",
        "164100.950000",
        "164101.950000",
        "164102.950000",
        "164103.950000",
        "164104.950000",
        "164105.950000",
        "164106.950000",
        "164107.950000",
        "164108.950000",
        "164109.950000",
        "164110.950000",
        "164111.950000",
        "164112.950000",
        "164113.950000",
        "164114.950000",
        "164115.950000",
        "164116.950000",
        "164117.950000",
        "164118.950000",
        "164119.950000",
        "164120.950000",
        "164121.950000",
        "164122.950000",
        "164123.950000",
        "164124.950000",
        "164125.950000",
        "164126.950000",
        "164127.950000",
        "164128.950000",
        "164129.950000",
        "164130.950000",
        "164131.950000",
        "164132.950000",
        "164133.950000",
        "164134.950000",
        "164135.950000",
        "164136.950000",
        "164137.950000",
        "164138.950000",
        "164139.950000",
        "164140.950000",
        "164141.950000",
        "164142.950000",
        "164143.950000",
        "164144.950000",
        "164145.950000",
        "164146.950000",
        "164147.950000",
        "164148.950000",
        "164149.950000",
        "164150.950000",
        "164151.950000",
        "164152.950000",
        "164153.950000",
        "164154.950000",
        "164155.950000",
        "164156.950000",
        "164157.950000",
        "164158.950000",
        "164159.950000",
        "164200.950000",
        "164201.950000",
        "164202.950000",
        "164203.950000",
        "164204.950000",
        "164205.950000",
        "164206.950000",
        "164207.950000",
        "164208.950000",
        "164209.950000",
        "164210.950000",
        "164211.950000",
        "164212.950000",
        "164213.950000",
        "164214.950000",
        "164215.950000",
        "164216.950000",
        "164217.950000",
        "164218.950000",
        "164219.950000",
        "164220.950000",
        "164221.950000",
        "164222.950000",
        "164223.950000",
        "164224.950000",
        "164225.950000",
        "164226.950000",
        "164227.950000",
        "164228.950000",
        "164229.950000",
        "164230.950000",
        "164231.950000",
        "164232.950000",
        "164233.950000",
        "164234.950000",
        "164235.950000",
        "164236.950000",
        "164237.950000",
        "164238.950000",
        "164239.950000",
        "164240.950000",
        "164241.950000",
        "164242.950000",
        "164243.950000",
        "164244.950000",
        "164245.950000",
        "164246.950000",
        "164247.950000",
        "164248.950000",
        "164249.950000",
        "164250.950000",
        "164251.950000",
        "164252.950000",
        "164253.950000",
        "164254.950000",
        "164255.950000",
        "164256.950000",
        "164257.950000",
        "164258.950000",
        "164259.950000"
      ],
      "ContentTime": [
        "163814.505000",
        "163815.401000",
        "163816.368000",
        "163817.386000",
        "163818.384000",
        "163819.393000",
        "163820.392000",
        "163821.443000",
        "163822.360000",
        "163823.393000",
        "163824.438000",
        "163825.361000",
        "163826.406000",
        "163827.380000",
        "163828.349000",
        "163829.356000",
        "163830.352000",
        "163831.362000",
        "163832.373000",
        "163833.364000",
        "163834.360000",
        "163835.359000",
        "163836.369000",
        "163837.356000",
        "163838.355000",
        "163839.377000",
        "163840.378000",
        "163841.348000",
        "163842.357000",
        "163843.337000",
        "163844.334000",
        "163845.368000",
        "163846.378000",
        "163847.354000",
        "163848.342000",
        "163849.358000",
        "163850.359000",
        "163851.380000",
        "163852.376000",
        "163853.378000",
        "163854.387000",
        "163855.360000",
        "163856.357000",
        "163857.342000",
        "163858.360000",
        "163859.359000",
        "163900.345000",
        "163901.328000",
        "163902.380000",
        "163903.357000",
        "163904.365000",
        "163905.340000",
        "163906.357000",
        "163907.372000",
        "163908.347000",
        "163909.370000",
        "163910.363000",
        "163911.350000",
        "163912.342000",
        "163913.360000",
        "163914.369000",
        "163915.361000",
        "163916.390000",
        "163917.349000",
        "163918.336000",
        "163919.357000",
        "163920.371000",
        "163921.342000",
        "163922.363000",
        "163923.369000",
        "163924.367000",
        "163925.365000",
        "163926.352000",
        "163927.360000",
        "163928.365000",
        "163929.337000",
        "163930.392000",
        "163931.360000",
        "163932.371000",
        "163933.385000",
        "163934.345000",
        "163935.391000",
        "163936.374000",
        "163937.371000",
        "163938.350000",
        "163939.353000",
        "163940.364000",
        "163941.355000",
        "163942.360000",
        "163943.342000",
        "163944.330000",
        "163945.356000",
        "163946.364000",
        "163947.374000",
        "163948.370000",
        "163949.363000",
        "163950.367000",
        "163951.394000",
        "163952.377000",
        "163953.362000",
        "163954.356000",
        "163955.379000",
        "163956.384000",
        "163957.377000",
        "163958.372000",
        "163959.351000",
        "164000.373000",
        "164001.333000",
        "164002.385000",
        "164003.355000",
        "164004.396000",
        "164005.385000",
        "164006.364000",
        "164007.374000",
        "164008.400000",
        "164009.403000",
        "164010.383000",
        "164011.369000",
        "164012.387000",
        "164013.389000",
        "164014.379000",
        "164015.385000",
        "164016.375000",
        "164017.341000",
        "164018.370000",
        "164019.353000",
        "164020.370000",
        "164021.354000",
        "164022.380000",
        "164023.367000",
        "164024.379000",
        "164025.367000",
        "164026.437000",
        "164027.325000",
        "164028.352000",
        "164029.330000",
        "164030.339000",
        "164031.363000",
        "164032.370000",
        "164033.369000",
        "164034.356000",
        "164035.360000",
        "164036.389000",
        "164037.381000",
        "164038.384000",
        "164039.363000",
        "164040.379000",
        "164041.383000",
        "164042.424000",
        "164043.361000",
        "164044.348000",
        "164045.379000",
        "164046.373000",
        "164047.378000",
        "164048.381000",
        "164049.371000",
        "164050.415000",
        "164051.342000",
        "164052.363000",
        "164053.352000",
        "164054.387000",
        "164055.376000",
        "164056.352000",
        "164057.351000",
        "164058.405000",
        "164059.370000",
        "164100.359000",
        "164101.371000",
        "164102.361000",
        "164103.386000",
        "164104.369000",
        "164105.406000",
        "164106.399000",
        "164107.357000",
        "164108.371000",
        "164109.362000",
        "164110.370000",
        "164111.373000",
        "164112.371000",
        "164113.387000",
        "164114.379000",
        "164115.374000",
        "164116.357000",
        "164117.414000",
        "164118.374000",
        "164119.414000",
        "164120.365000",
        "164121.363000",
        "164122.343000",
        "164123.360000",
        "164124.348000",
        "164125.354000",
        "164126.386000",
        "164127.351000",
        "164128.362000",
        "164129.409000",
        "164130.383000",
        "164131.366000",
        "164132.358000",
        "164133.352000",
        "164134.355000",
        "164135.364000",
        "164136.345000",
        "164137.362000",
        "164138.374000",
        "164139.370000",
        "164140.368000",
        "164141.360000",
        "164142.386000",
        "164143.416000",
        "164144.354000",
        "164145.350000",
        "164146.377000",
        "164147.372000",
        "164148.340000",
        "164149.379000",
        "164150.370000",
        "164151.360000",
        "164152.378000",
        "164153.363000",
        "164154.374000",
        "164155.389000",
        "164156.380000",
        "164157.374000",
        "164158.372000",
        "164159.370000",
        "164200.403000",
        "164201.354000",
        "164202.396000",
        "164203.373000",
        "164204.365000",
        "164205.373000",
        "164206.360000",
        "164207.382000",
        "164208.367000",
        "164209.395000",
        "164210.378000",
        "164211.361000",
        "164212.385000",
        "164213.369000",
        "164214.369000",
        "164215.373000",
        "164216.380000",
        "164217.376000",
        "164218.384000",
        "164219.372000",
        "164220.386000",
        "164221.413000",
        "164222.387000",
        "164223.363000",
        "164224.378000",
        "164225.348000",
        "164226.350000",
        "164227.324000",
        "164228.370000",
        "164229.364000",
        "164230.350000",
        "164231.359000",
        "164232.344000",
        "164233.350000",
        "164234.369000",
        "164235.331000",
        "164236.360000",
        "164237.373000",
        "164238.347000",
        "164239.367000",
        "164240.379000",
        "164241.372000",
        "164242.429000",
        "164243.367000",
        "164244.375000",
        "164245.365000",
        "164246.381000",
        "164247.371000",
        "164248.375000",
        "164249.335000",
        "164250.356000",
        "164251.377000",
        "164252.352000",
        "164253.363000",
        "164254.377000",
        "164255.388000",
        "164256.401000",
        "164257.371000",
        "164258.360000",
        "164259.391000",
        "164300.393000",
        "164301.365000"
      ],
      "InstanceCreationTime": [
        "163814.505000",
        "163815.401000",
        "163816.368000",
        "163817.386000",
        "163818.384000",
        "163819.393000",
        "163820.392000",
        "163821.443000",
        "163822.360000",
        "163823.393000",
        "163824.438000",
        "163825.361000",
        "163826.406000",
        "163827.380000",
        "163828.349000",
        "163829.356000",
        "163830.352000",
        "163831.362000",
        "163832.373000",
        "163833.364000",
        "163834.360000",
        "163835.359000",
        "163836.369000",
        "163837.356000",
        "163838.355000",
        "163839.377000",
        "163840.378000",
        "163841.348000",
        "163842.357000",
        "163843.337000",
        "163844.334000",
        "163845.368000",
        "163846.378000",
        "163847.354000",
        "163848.342000",
        "163849.358000",
        "163850.359000",
        "163851.380000",
        "163852.376000",
        "163853.378000",
        "163854.387000",
        "163855.360000",
        "163856.357000",
        "163857.342000",
        "163858.360000",
        "163859.359000",
        "163900.345000",
        "163901.328000",
        "163902.380000",
        "163903.357000",
        "163904.365000",
        "163905.340000",
        "163906.357000",
        "163907.372000",
        "163908.347000",
        "163909.370000",
        "163910.363000",
        "163911.350000",
        "163912.342000",
        "163913.360000",
        "163914.369000",
        "163915.361000",
        "163916.390000",
        "163917.349000",
        "163918.336000",
        "163919.357000",
        "163920.371000",
        "163921.342000",
        "163922.363000",
        "163923.369000",
        "163924.367000",
        "163925.365000",
        "163926.352000",
        "163927.360000",
        "163928.365000",
        "163929.337000",
        "163930.392000",
        "163931.360000",
        "163932.371000",
        "163933.385000",
        "163934.345000",
        "163935.391000",
        "163936.374000",
        "163937.371000",
        "163938.350000",
        "163939.353000",
        "163940.364000",
        "163941.355000",
        "163942.360000",
        "163943.342000",
        "163944.330000",
        "163945.356000",
        "163946.364000",
        "163947.374000",
        "163948.370000",
        "163949.363000",
        "163950.367000",
        "163951.394000",
        "163952.377000",
        "163953.362000",
        "163954.356000",
        "163955.379000",
        "163956.384000",
        "163957.377000",
        "163958.372000",
        "163959.351000",
        "164000.373000",
        "164001.333000",
        "164002.385000",
        "164003.355000",
        "164004.396000",
        "164005.385000",
        "164006.364000",
        "164007.374000",
        "164008.400000",
        "164009.403000",
        "164010.383000",
        "164011.369000",
        "164012.387000",
        "164013.389000",
        "164014.379000",
        "164015.385000",
        "164016.375000",
        "164017.341000",
        "164018.370000",
        "164019.353000",
        "164020.370000",
        "164021.354000",
        "164022.380000",
        "164023.367000",
        "164024.379000",
        "164025.367000",
        "164026.437000",
        "164027.325000",
        "164028.352000",
        "164029.330000",
        "164030.339000",
        "164031.363000",
        "164032.370000",
        "164033.369000",
        "164034.356000",
        "164035.360000",
        "164036.389000",
        "164037.381000",
        "164038.384000",
        "164039.363000",
        "164040.379000",
        "164041.383000",
        "164042.424000",
        "164043.361000",
        "164044.348000",
        "164045.379000",
        "164046.373000",
        "164047.378000",
        "164048.381000",
        "164049.371000",
        "164050.415000",
        "164051.342000",
        "164052.363000",
        "164053.352000",
        "164054.387000",
        "164055.376000",
        "164056.352000",
        "164057.351000",
        "164058.405000",
        "164059.370000",
        "164100.359000",
        "164101.371000",
        "164102.361000",
        "164103.386000",
        "164104.369000",
        "164105.406000",
        "164106.399000",
        "164107.357000",
        "164108.371000",
        "164109.362000",
        "164110.370000",
        "164111.373000",
        "164112.371000",
        "164113.387000",
        "164114.379000",
        "164115.374000",
        "164116.357000",
        "164117.414000",
        "164118.374000",
        "164119.414000",
        "164120.365000",
        "164121.363000",
        "164122.343000",
        "164123.360000",
        "164124.348000",
        "164125.354000",
        "164126.386000",
        "164127.351000",
        "164128.362000",
        "164129.409000",
        "164130.383000",
        "164131.366000",
        "164132.358000",
        "164133.352000",
        "164134.355000",
        "164135.364000",
        "164136.345000",
        "164137.362000",
        "164138.374000",
        "164139.370000",
        "164140.368000",
        "164141.360000",
        "164142.386000",
        "164143.416000",
        "164144.354000",
        "164145.350000",
        "164146.377000",
        "164147.372000",
        "164148.340000",
        "164149.379000",
        "164150.370000",
        "164151.360000",
        "164152.378000",
        "164153.363000",
        "164154.374000",
        "164155.389000",
        "164156.380000",
        "164157.374000",
        "164158.372000",
        "164159.370000",
        "164200.403000",
        "164201.354000",
        "164202.396000",
        "164203.373000",
        "164204.365000",
        "164205.373000",
        "164206.360000",
        "164207.382000",
        "164208.367000",
        "164209.395000",
        "164210.378000",
        "164211.361000",
        "164212.385000",
        "164213.369000",
        "164214.369000",
        "164215.373000",
        "164216.380000",
        "164217.376000",
        "164218.384000",
        "164219.372000",
        "164220.386000",
        "164221.413000",
        "164222.387000",
        "164223.363000",
        "164224.378000",
        "164225.348000",
        "164226.350000",
        "164227.324000",
        "164228.370000",
