{
  "AcquisitionMatrixPE": 96,
  "AcquisitionNumber": 1,
  "BandwidthPerPixelPhaseEncode": 18.939,
  "BaseResolution": 96,
  "BodyPartExamined": "BRAIN",
  "ConsistencyInfo": "N4_VE11C_LATEST_20160120",
  "ConversionSoftware": "dcm2niix",
  "ConversionSoftwareVersion": "v1.0.20171215 (OpenJPEG build) GCC6.3.0",
  "DerivedVendorReportedEchoSpacing": 0.000550011,
  "DeviceSerialNumber": "66112",
  "DwellTime": 2.2e-06,
  "EchoTime": 0.033,
  "EchoTrainLength": 96,
  "EffectiveEchoSpacing": 0.000550011,
  "FlipAngle": 59,
  "ImageOrientationPatientDICOM": [
    0.996363,
    -0.0139894,
    0.0840548,
    0.0142607,
    0.999895,
    -0.0026275
  ],
  "ImageType": [
    "ORIGINAL",
    "PRIMARY",
    "FMRI",
    "NONE",
    "ND",
    "NORM",
    "MOSAIC"
  ],
  "InPlanePhaseEncodingDirectionDICOM": "COL",
  "InstitutionAddress": "Maynard_3_Hanover_NH_US_03755",
  "InstitutionName": "Dartmouth_College_-_PBS",
  "InstitutionalDepartmentName": "Department",
  "MRAcquisitionType": "2D",
  "MagneticFieldStrength": 3,
  "Manufacturer": "Siemens",
  "ManufacturersModelName": "Prisma",
  "Modality": "MR",
  "MultibandAccelerationFactor": 4,
  "PartialFourier": 1,
  "PatientPosition": "HFS",
  "PercentPhaseFOV": 100,
  "PhaseEncodingDirection": "j-",
  "PhaseEncodingSteps": 96,
  "PhaseResolution": 1,
  "PixelBandwidth": 2365,
  "ProcedureStepDescription": "Gobbini_Matteo_1038_hyperface",
  "ProtocolName": "func_run-01_task-localizer",
  "PulseSequenceDetails": "%SiemensSeq%_ep2d_bold",
  "ReceiveCoilActiveElements": "HEA;HEP",
  "ReceiveCoilName": "Head_32",
  "ReconMatrixPE": 96,
  "RepetitionTime": 1,
  "SAR": 0.0471303,
  "ScanOptions": "FS",
  "ScanningSequence": "EP",
  "SequenceName": "_epfid2d1_96",
  "SequenceVariant": "SK",
  "SeriesDescription": "func_run-01_task-localizer",
  "SeriesNumber": 8,
  "ShimSetting": [
    4163,
    -7693,
    -7346,
    709,
    -32,
    -86,
    3,
    23
  ],
  "SliceThickness": 2.5,
  "SliceTiming": [
    0.735,
    0,
    0.49,
    0.08,
    0.57,
    0.1625,
    0.6525,
    0.325,
    0.815,
    0.4075,
    0.8975,
    0.245,
    0.735,
    0,
    0.49,
    0.08,
    0.57,
    0.1625,
    0.6525,
    0.325,
    0.815,
    0.4075,
    0.8975,
    0.245,
    0.735,
    0,
    0.49,
    0.08,
    0.57,
    0.1625,
    0.6525,
    0.325,
    0.815,
    0.4075,
    0.8975,
    0.245,
    0.735,
    0,
    0.49,
    0.08,
    0.57,
    0.1625,
    0.6525,
    0.325,
    0.815,
    0.4075,
    0.8975,
    0.245
  ],
  "SoftwareVersions": "syngo_MR_E11",
  "SpacingBetweenSlices": 2.5,
  "StationName": "AWP66112",
  "TotalReadoutTime": 0.0522511,
  "TxRefAmp": 229.552,
  "time": {
    "samples": {
      "AcquisitionNumber": [
        1,
        2,
        3,
        4,
        5,
        6,
        7,
        8,
        9,
        10,
        11,
        12,
        13,
        14,
        15,
        16,
        17,
        18,
        19,
        20,
        21,
        22,
        23,
        24,
        25,
        26,
        27,
        28,
        29,
        30,
        31,
        32,
        33,
        34,
        35,
        36,
        37,
        38,
        39,
        40,
        41,
        42,
        43,
        44,
        45,
        46,
        47,
        48,
        49,
        50,
        51,
        52,
        53,
        54,
        55,
        56,
        57,
        58,
        59,
        60,
        61,
        62,
        63,
        64,
        65,
        66,
        67,
        68,
        69,
        70,
        71,
        72,
        73,
        74,
        75,
        76,
        77,
        78,
        79,
        80,
        81,
        82,
        83,
        84,
        85,
        86,
        87,
        88,
        89,
        90,
        91,
        92,
        93,
        94,
        95,
        96,
        97,
        98,
        99,
        100,
        101,
        102,
        103,
        104,
        105,
        106,
        107,
        108,
        109,
        110,
        111,
        112,
        113,
        114,
        115,
        116,
        117,
        118,
        119,
        120,
        121,
        122,
        123,
        124,
        125,
        126,
        127,
        128,
        129,
        130,
        131,
        132,
        133,
        134,
        135,
        136,
        137,
        138,
        139,
        140,
        141,
        142,
        143,
        144,
        145,
        146,
        147,
        148,
        149,
        150,
        151,
        152,
        153,
        154,
        155,
        156,
        157,
        158,
        159,
        160,
        161,
        162,
        163,
        164,
        165,
        166,
        167,
        168,
        169,
        170,
        171,
        172,
        173,
        174,
        175,
        176,
        177,
        178,
        179,
        180,
        181,
        182,
        183,
        184,
        185,
        186,
        187,
        188,
        189,
        190,
        191,
        192,
        193,
        194,
        195,
        196,
        197,
        198,
        199,
        200,
        201,
        202,
        203,
        204,
        205,
        206,
        207,
        208,
        209,
        210,
        211,
        212,
        213,
        214,
        215,
        216,
        217,
        218,
        219,
        220,
        221,
        222,
        223,
        224,
        225,
        226,
        227,
        228,
        229,
        230,
        231,
        232,
        233,
        234,
        235,
        236
      ],
      "AcquisitionTime": [
        "102208.590000",
        "102209.590000",
        "102210.590000",
        "102211.590000",
        "102212.590000",
        "102213.590000",
        "102214.590000",
        "102215.590000",
        "102216.590000",
        "102217.590000",
        "102218.590000",
        "102219.590000",
        "102220.590000",
        "102221.590000",
        "102222.590000",
        "102223.590000",
        "102224.590000",
        "102225.590000",
        "102226.590000",
        "102227.590000",
        "102228.590000",
        "102229.590000",
        "102230.590000",
        "102231.590000",
        "102232.590000",
        "102233.590000",
        "102234.590000",
        "102235.590000",
        "102236.590000",
        "102237.590000",
        "102238.590000",
        "102239.590000",
        "102240.590000",
        "102241.590000",
        "102242.590000",
        "102243.590000",
        "102244.590000",
        "102245.590000",
        "102246.590000",
        "102247.590000",
        "102248.590000",
        "102249.590000",
        "102250.590000",
        "102251.590000",
        "102252.590000",
        "102253.590000",
        "102254.590000",
        "102255.590000",
        "102256.590000",
        "102257.590000",
        "102258.590000",
        "102259.590000",
        "102300.590000",
        "102301.590000",
        "102302.590000",
        "102303.590000",
        "102304.590000",
        "102305.590000",
        "102306.590000",
        "102307.590000",
        "102308.590000",
        "102309.590000",
        "102310.590000",
        "102311.590000",
        "102312.590000",
        "102313.590000",
        "102314.590000",
        "102315.590000",
        "102316.590000",
        "102317.590000",
        "102318.590000",
        "102319.590000",
        "102320.590000",
        "102321.590000",
        "102322.590000",
        "102323.590000",
        "102324.590000",
        "102325.590000",
        "102326.590000",
        "102327.590000",
        "102328.590000",
        "102329.590000",
        "102330.590000",
        "102331.590000",
        "102332.590000",
        "102333.590000",
        "102334.590000",
        "102335.590000",
        "102336.590000",
        "102337.590000",
        "102338.590000",
        "102339.590000",
        "102340.590000",
        "102341.590000",
        "102342.590000",
        "102343.590000",
        "102344.590000",
        "102345.590000",
        "102346.590000",
        "102347.590000",
        "102348.590000",
        "102349.590000",
        "102350.590000",
        "102351.590000",
        "102352.590000",
        "102353.590000",
        "102354.590000",
        "102355.590000",
        "102356.590000",
        "102357.590000",
        "102358.590000",
        "102359.590000",
        "102400.590000",
        "102401.590000",
        "102402.590000",
        "102403.590000",
        "102404.590000",
        "102405.590000",
        "102406.590000",
        "102407.590000",
        "102408.590000",
        "102409.590000",
        "102410.590000",
        "102411.590000",
        "102412.590000",
        "102413.590000",
        "102414.590000",
        "102415.590000",
        "102416.590000",
        "102417.590000",
        "102418.590000",
        "102419.590000",
        "102420.590000",
        "102421.590000",
        "102422.590000",
        "102423.590000",
        "102424.590000",
        "102425.590000",
        "102426.590000",
        "102427.590000",
        "102428.590000",
        "102429.590000",
        "102430.590000",
        "102431.590000",
        "102432.590000",
        "102433.590000",
        "102434.590000",
        "102435.590000",
        "102436.590000",
        "102437.590000",
        "102438.590000",
        "102439.590000",
        "102440.590000",
        "102441.590000",
        "102442.590000",
        "102443.590000",
        "102444.590000",
        "102445.590000",
        "102446.590000",
        "102447.590000",
        "102448.590000",
        "102449.590000",
        "102450.590000",
        "102451.590000",
        "102452.590000",
        "102453.590000",
        "102454.590000",
        "102455.590000",
        "102456.590000",
        "102457.590000",
        "102458.590000",
        "102459.590000",
        "102500.590000",
        "102501.590000",
        "102502.590000",
        "102503.590000",
        "102504.590000",
        "102505.590000",
        "102506.590000",
        "102507.590000",
        "102508.590000",
        "102509.590000",
        "102510.590000",
        "102511.590000",
        "102512.590000",
        "102513.590000",
        "102514.590000",
        "102515.590000",
        "102516.590000",
        "102517.590000",
        "102518.590000",
        "102519.590000",
        "102520.590000",
        "102521.590000",
        "102522.590000",
        "102523.590000",
        "102524.590000",
        "102525.590000",
        "102526.590000",
        "102527.590000",
        "102528.590000",
        "102529.590000",
        "102530.590000",
        "102531.590000",
        "102532.590000",
        "102533.590000",
        "102534.590000",
        "102535.590000",
        "102536.590000",
        "102537.590000",
        "102538.590000",
        "102539.590000",
        "102540.590000",
        "102541.590000",
        "102542.590000",
        "102543.590000",
        "102544.590000",
        "102545.590000",
        "102546.590000",
        "102547.590000",
        "102548.590000",
        "102549.590000",
        "102550.590000",
        "102551.590000",
        "102552.590000",
        "102553.590000",
        "102554.590000",
        "102555.590000",
        "102556.590000",
        "102557.590000",
        "102558.590000",
        "102559.590000",
        "102600.590000",
        "102601.590000",
        "102602.590000",
        "102603.590000"
      ],
      "ContentTime": [
        "102210.111000",
        "102210.894000",
        "102211.884000",
        "102212.926000",
        "102213.911000",
        "102214.906000",
        "102215.880000",
        "102216.871000",
        "102217.874000",
        "102218.880000",
        "102219.859000",
        "102220.902000",
        "102221.858000",
        "102222.881000",
        "102223.875000",
        "102224.891000",
        "102225.869000",
        "102226.899000",
        "102227.863000",
        "102228.885000",
        "102229.884000",
        "102230.865000",
        "102231.883000",
        "102232.880000",
        "102233.883000",
        "102234.877000",
        "102235.880000",
        "102236.875000",
        "102237.888000",
        "102238.875000",
        "102239.865000",
        "102240.888000",
        "102241.877000",
        "102242.891000",
        "102243.867000",
        "102244.875000",
        "102245.874000",
        "102246.887000",
        "102247.862000",
        "102248.861000",
        "102249.877000",
        "102250.903000",
        "102251.880000",
        "102252.883000",
        "102253.863000",
        "102254.878000",
        "102255.864000",
        "102256.911000",
        "102257.845000",
        "102258.853000",
        "102259.876000",
        "102300.864000",
        "102301.874000",
        "102302.876000",
        "102303.851000",
        "102304.875000",
        "102305.898000",
        "102306.893000",
        "102307.874000",
        "102308.865000",
        "102309.862000",
        "102310.854000",
        "102311.871000",
        "102312.872000",
        "102313.876000",
        "102314.876000",
        "102315.850000",
        "102316.883000",
        "102317.863000",
        "102318.861000",
        "102319.866000",
        "102320.848000",
        "102321.895000",
        "102322.880000",
        "102323.885000",
        "102324.897000",
        "102325.883000",
        "102326.892000",
        "102327.883000",
        "102328.891000",
        "102329.863000",
        "102330.856000",
        "102331.866000",
        "102332.867000",
        "102333.862000",
        "102334.848000",
        "102335.893000",
        "102336.839000",
        "102337.867000",
        "102338.839000",
        "102339.868000",
        "102340.868000",
        "102341.864000",
        "102342.851000",
        "102343.834000",
        "102344.923000",
        "102345.876000",
        "102346.860000",
        "102347.876000",
        "102348.882000",
        "102349.879000",
        "102350.885000",
        "102351.870000",
        "102352.889000",
        "102353.888000",
        "102354.885000",
        "102355.879000",
        "102356.872000",
        "102357.889000",
        "102358.878000",
        "102359.899000",
        "102400.886000",
        "102401.883000",
        "102402.871000",
        "102403.886000",
        "102404.891000",
        "102405.894000",
        "102406.901000",
        "102407.891000",
        "102408.890000",
        "102409.856000",
        "102410.871000",
        "102411.862000",
        "102412.895000",
        "102413.873000",
        "102414.890000",
        "102415.881000",
        "102416.889000",
        "102417.889000",
        "102418.899000",
        "102419.886000",
        "102420.864000",
        "102421.921000",
        "102422.868000",
        "102423.884000",
        "102424.892000",
        "102425.888000",
        "102426.914000",
        "102427.886000",
        "102428.866000",
        "102429.962000",
        "102430.871000",
        "102431.916000",
        "102432.870000",
        "102433.875000",
        "102434.874000",
        "102435.865000",
        "102436.857000",
        "102437.890000",
        "102438.961000",
        "102439.895000",
        "102440.865000",
        "102441.870000",
        "102442.870000",
        "102443.845000",
        "102444.874000",
        "102445.905000",
        "102446.882000",
        "102447.875000",
        "102448.922000",
        "102449.887000",
        "102450.857000",
        "102451.871000",
        "102452.875000",
        "102453.856000",
        "102454.959000",
        "102455.900000",
        "102456.873000",
        "102457.863000",
        "102458.889000",
        "102459.880000",
        "102500.896000",
        "102501.868000",
        "102502.892000",
        "102503.922000",
        "102504.861000",
        "102505.873000",
        "102506.878000",
        "102507.878000",
        "102508.893000",
        "102509.852000",
        "102510.915000",
        "102511.840000",
        "102512.873000",
        "102513.903000",
        "102514.922000",
        "102515.897000",
        "102516.913000",
        "102517.845000",
        "102518.875000",
        "102519.870000",
        "102520.875000",
        "102521.889000",
        "102522.862000",
        "102523.869000",
        "102524.874000",
        "102525.854000",
        "102526.879000",
        "102527.881000",
        "102528.885000",
        "102529.873000",
        "102530.851000",
        "102531.865000",
        "102532.913000",
        "102533.855000",
        "102534.879000",
        "102535.880000",
        "102536.878000",
        "102537.869000",
        "102538.890000",
        "102539.946000",
        "102540.877000",
        "102541.869000",
        "102542.885000",
        "102543.888000",
        "102544.861000",
        "102545.881000",
        "102546.855000",
        "102547.874000",
        "102548.887000",
        "102549.870000",
        "102550.881000",
        "102551.882000",
        "102552.860000",
        "102553.863000",
        "102554.862000",
        "102555.864000",
        "102556.869000",
        "102557.896000",
        "102558.894000",
        "102559.893000",
        "102600.870000",
        "102601.863000",
        "102602.861000",
        "102603.880000",
        "102604.910000"
      ],
      "InstanceCreationTime": [
        "102210.111000",
        "102210.894000",
        "102211.884000",
        "102212.926000",
        "102213.911000",
        "102214.906000",
        "102215.880000",
        "102216.871000",
        "102217.874000",
        "102218.880000",
        "102219.859000",
        "102220.902000",
        "102221.858000",
        "102222.881000",
        "102223.875000",
        "102224.891000",
        "102225.869000",
        "102226.899000",
        "102227.863000",
        "102228.885000",
        "102229.884000",
        "102230.865000",
        "102231.883000",
        "102232.880000",
        "102233.883000",
        "102234.877000",
        "102235.880000",
        "102236.875000",
        "102237.888000",
        "102238.875000",
        "102239.865000",
        "102240.888000",
        "102241.877000",
        "102242.891000",
        "102243.867000",
        "102244.875000",
        "102245.874000",
        "102246.887000",
        "102247.862000",
        "102248.861000",
        "102249.877000",
        "102250.903000",
        "102251.880000",
        "102252.883000",
        "102253.863000",
        "102254.878000",
        "102255.864000",
        "102256.911000",
        "102257.845000",
        "102258.853000",
        "102259.876000",
        "102300.864000",
        "102301.874000",
        "102302.876000",
        "102303.851000",
        "102304.875000",
        "102305.898000",
        "102306.893000",
        "102307.874000",
        "102308.865000",
        "102309.862000",
        "102310.854000",
        "102311.871000",
        "102312.872000",
        "102313.876000",
        "102314.876000",
        "102315.850000",
        "102316.883000",
        "102317.863000",
        "102318.861000",
        "102319.866000",
        "102320.848000",
        "102321.895000",
        "102322.880000",
        "102323.885000",
        "102324.897000",
        "102325.883000",
        "102326.892000",
        "102327.883000",
        "102328.891000",
        "102329.863000",
        "102330.856000",
        "102331.866000",
        "102332.867000",
        "102333.862000",
        "102334.848000",
        "102335.893000",
        "102336.839000",
        "102337.867000",
        "102338.839000",
        "102339.868000",
        "102340.868000",
        "102341.864000",
        "102342.851000",
        "102343.834000",
        "102344.923000",
        "102345.876000",
        "102346.860000",
        "102347.876000",
        "102348.882000",
        "102349.879000",
        "102350.885000",
        "102351.870000",
        "102352.889000",
        "102353.888000",
        "102354.885000",
        "102355.879000",
        "102356.872000",
        "102357.889000",
        "102358.878000",
        "102359.899000",
        "102400.886000",
        "102401.883000",
        "102402.871000",
        "102403.886000",
        "102404.891000",
        "102405.894000",
        "102406.901000",
        "102407.891000",
        "102408.890000",
        "102409.856000",
        "102410.871000",
        "102411.862000",
        "102412.895000",
        "102413.873000",
        "102414.890000",
        "102415.881000",
        "102416.889000",
        "102417.889000",
        "102418.899000",
        "102419.886000",
        "102420.864000",
        "102421.921000",
        "102422.868000",
        "102423.884000",
        "102424.892000",
        "102425.888000",
        "102426.914000",
        "102427.886000",
        "102428.866000",
        "102429.962000",
        "102430.871000",
        "102431.916000",
        "102432.870000",
        "102433.875000",
        "102434.874000",
        "102435.865000",
        "102436.857000",
        "102437.890000",
        "102438.961000",
        "102439.895000",
        "102440.865000",
        "102441.870000",
        "102442.870000",
        "102443.845000",
        "102444.874000",
        "102445.905000",
        "102446.882000",
        "102447.875000",
        "102448.922000",
        "102449.887000",
        "102450.857000",
        "102451.871000",
        "102452.875000",
        "102453.856000",
        "102454.959000",
        "102455.900000",
        "102456.873000",
        "102457.863000",
        "102458.889000",
        "102459.880000",
        "102500.896000",
        "102501.868000",
        "102502.892000",
        "102503.922000",
        "102504.861000",
        "102505.873000",
        "102506.878000",
        "102507.878000",
        "102508.893000",
        "102509.852000",
        "102510.915000",
        "102511.840000",
        "102512.873000",
        "102513.903000",
        "102514.922000",
        "102515.897000",
        "102516.913000",
        "102517.845000",
        "102518.875000",
        "102519.870000",
        "102520.875000",
        "102521.889000",
        "102522.862000",
        "102523.869000",
        "102524.874000",
        "102525.854000",
        "102526.879000",
        "102527.881000",
        "102528.885000",
        "102529.873000",
        "102530.851000",
        "102531.865000",
        "102532.913000",
        "102533.855000",
        "102534.879000",
        "102535.880000",
        "102536.878000",
        "102537.869000",
        "102538.890000",
        "102539.946000",
        "102540.877000",
        "102541.869000",
        "102542.885000",
        "102543.888000",
        "102544.861000",
        "102545.881000",
        "102546.855000",
        "102547.874000",
        "102548.887000",
        "102549.870000",
        "102550.881000",
        "102551.882000",
        "102552.860000",
        "102553.863000",
        "102554.862000",
        "102555.864000",
        "102556.869000",
        "102557.896000",
        "102558.894000",
        "102559.893000",
        "102600.870000",
        "102601.863000",
        "102602.861000",
        "102603.880000",
        "102604.910000"
      ],
      "InstanceNumber": [
        1,
        2,
        3,
        4,
        5,
        6,
        7,
        8,
        9,
        10,
        11,
        12,
        13,
        14,
        15,
        16,
        17,
        18,
        19,
        20,
        21,
        22,
        23,
        24,
        25,
        26,
        27,
        28,
        29,
        30,
        31,
        32,
        33,
        34,
        35,
        36,
        37,
        38,
        39,
        40,
        41,
        42,
        43,
        44,
        45,
        46,
        47,
        48,
        49,
        50,
        51,
        52,
        53,
        54,
        55,
        56,
        57,
        58,
        59,
        60,
        61,
        62,
        63,
        64,
        65,
        66,
        67,
        68,
        69,
        70,
        71,
        72,
        73,
        74,
        75,
        76,
        77,
        78,
        79,
        80,
        81,
        82,
        83,
        84,
        85,
        86,
        87,
        88,
        89,
        90,
        91,
        92,
        93,
        94,
        95,
        96,
        97,
        98,
        99,
        100,
        101,
        102,
        103,
        104,
        105,
        106,
        107,
        108,
        109,
        110,
        111,
        112,
        113,
        114,
        115,
        116,
        117,
        118,
        119,
        120,
        121,
        122,
        123,
        124,
        125,
        126,
        127,
        128,
        129,
        130,
        131,
        132,
        133,
        134,
        135,
        136,
        137,
        138,
        139,
        140,
        141,
        142,
        143,
        144,
        145,
        146,
        147,
        148,
        149,
        150,
        151,
        152,
        153,
        154,
        155,
        156,
        157,
        158,
        159,
        160,
        161,
        162,
        163,
        164,
        165,
        166,
        167,
        168,
        169,
        170,
        171,
        172,
        173,
        174,
        175,
        176,
        177,
        178,
        179,
        180,
        181,
        182,
        183,
        184,
        185,
        186,
        187,
        188,
        189,
        190,
        191,
        192,
        193,
        194,
        195,
        196,
        197,
        198,
        199,
        200,
        201,
        202,
        203,
        204,
        205,
        206,
        207,
        208,
        209,
        210,
        211,
        212,
        213,
        214,
        215,
        216,
        217,
        218,
        219,
        220,
        221,
        222,
        223,
        224,
        225,
        226,
        227,
        228,
        229,
        230,
        231,
        232,
        233,
        234,
        235,
        236
      ],
      "LargestImagePixelValue": [
        779,
        689,
        749,
        795,
        820,
        713,
        736,
        759,
        741,
        755,
        743,
        758,
        734,
        750,
        791,
        693,
        765,
        773,
        804,
        726,
        780,
        739,
        745,
        744,
        721,
        772,
        715,
        780,
        771,
        702,
        762,
        771,
        729,
        736,
        753,
        714,
        755,
        703,
        745,
        769,
        819,
        755,
        776,
        762,
        731,
        774,
        707,
        752,
        705,
        741,
        782,
        883,
        808,
        752,
        808,
        739,
        725,
        735,
        743,
        773,
        730,
        747,
        737,
        728,
        770,
        715,
        755,
        736,
        734,
        781,
        819,
        742,
        767,
        712,
        760,
        737,
        749,
        795,
        709,
        728,
        752,
        750,
        705,
        760,
        781,
        716,
        773,
        687,
        743,
        729,
        772,
        763,
        751,
        763,
        782,
        744,
        720,
        762,
        767,
        747,
        791,
        746,
        770,
        760,
        755,
        742,
        727,
        724,
        762,
        788,
        749,
        795,
        713,
        790,
        847,
        729,
        731,
        761,
        779,
        705,
        744,
        754,
        760,
        749,
        772,
        741,
        754,
        801,
        732,
        720,
        715,
        728,
        746,
        770,
        738,
        724,
        767,
        725,
        785,
        797,
        715,
        726,
        713,
        695,
        736,
        773,
        786,
        730,
        717,
        726,
        735,
        758,
        741,
        791,
        774,
        766,
        743,
        773,
        785,
        739,
        778,
        738,
        775,
        781,
        741,
        740,
        765,
        750,
        745,
        788,
        773,
        782,
        735,
        757,
        784,
        743,
        788,
        730,
        752,
        732,
        772,
        723,
        777,
        778,
        749,
        781,
        736,
        816,
        725,
        747,
        778,
        792,
        708,
        768,
        737,
        748,
        726,
        715,
        768,
        749,
        735,
        739,
        763,
        722,
        762,
        764,
        813,
        741,
        798,
        718,
        733,
        775,
        730,
        752,
        770,
        757,
        776,
        736,
        726,
        744,
        766,
        721,
        722,
        857,
        735,
        780,
        784,
        803,
        715,
        741,
        764,
        737,
        821,
        721,
        780,
        784
      ],
      "WindowCenter": [
        338,
        336,
        336,
        337,
        337,
        336,
        336,
        335,
        335,
        336,
        336,
        336,
        336,
        336,
        337,
        335,
        336,
        337,
        337,
        336,
        337,
        337,
        337,
        337,
        337,
        337,
        336,
        337,
        337,
        336,
