{
  "AcquisitionMatrixPE": 96,
  "AcquisitionNumber": 1,
  "BandwidthPerPixelPhaseEncode": 18.939,
  "BaseResolution": 96,
  "BodyPartExamined": "BRAIN",
  "ConsistencyInfo": "N4_VE11C_LATEST_20160120",
  "ConversionSoftware": "dcm2niix",
  "ConversionSoftwareVersion": "v1.0.20171215 (OpenJPEG build) GCC6.3.0",
  "DerivedVendorReportedEchoSpacing": 0.000550011,
  "DeviceSerialNumber": "66112",
  "DwellTime": 2.2e-06,
  "EchoTime": 0.033,
  "EchoTrainLength": 96,
  "EffectiveEchoSpacing": 0.000550011,
  "FlipAngle": 59,
  "ImageOrientationPatientDICOM": [
    0.996363,
    -0.0139894,
    0.0840548,
    0.0142607,
    0.999895,
    -0.0026275
  ],
  "ImageType": [
    "ORIGINAL",
    "PRIMARY",
    "FMRI",
    "NONE",
    "ND",
    "NORM",
    "MOSAIC"
  ],
  "InPlanePhaseEncodingDirectionDICOM": "COL",
  "InstitutionAddress": "Maynard_3_Hanover_NH_US_03755",
  "InstitutionName": "Dartmouth_College_-_PBS",
  "InstitutionalDepartmentName": "Department",
  "MRAcquisitionType": "2D",
  "MagneticFieldStrength": 3,
  "Manufacturer": "Siemens",
  "ManufacturersModelName": "Prisma",
  "Modality": "MR",
  "MultibandAccelerationFactor": 4,
  "PatientPosition": "HFS",
  "PercentPhaseFOV": 100,
  "PhaseEncodingDirection": "j-",
  "PhaseEncodingSteps": 96,
  "PhaseResolution": 1,
  "PixelBandwidth": 2365,
  "ProcedureStepDescription": "Gobbini_Matteo_1038_hyperface",
  "ProtocolName": "func_run-02_task-visualmemory",
  "PulseSequenceDetails": "%SiemensSeq%_ep2d_bold",
  "ReceiveCoilActiveElements": "HEA;HEP",
  "ReceiveCoilName": "Head_32",
  "ReconMatrixPE": 96,
  "RepetitionTime": 1,
  "SAR": 0.0472432,
  "ScanOptions": "FS",
  "ScanningSequence": "EP",
  "SequenceName": "_epfid2d1_96",
  "SequenceVariant": "SK",
  "SeriesDescription": "func_run-02_task-visualmemory",
  "SeriesNumber": 15,
  "ShimSetting": [
    4163,
    -7693,
    -7346,
    709,
    -32,
    -86,
    3,
    23
  ],
  "SliceThickness": 2.5,
  "SliceTiming": [
    0.735,
    0,
    0.49,
    0.0825,
    0.5725,
    0.165,
    0.655,
    0.3275,
    0.8175,
    0.41,
    0.9,
    0.245,
    0.735,
    0,
    0.49,
    0.0825,
    0.5725,
    0.165,
    0.655,
    0.3275,
    0.8175,
    0.41,
    0.9,
    0.245,
    0.735,
    0,
    0.49,
    0.0825,
    0.5725,
    0.165,
    0.655,
    0.3275,
    0.8175,
    0.41,
    0.9,
    0.245,
    0.735,
    0,
    0.49,
    0.0825,
    0.5725,
    0.165,
    0.655,
    0.3275,
    0.8175,
    0.41,
    0.9,
    0.245
  ],
  "SoftwareVersions": "syngo_MR_E11",
  "SpacingBetweenSlices": 2.5,
  "StationName": "AWP66112",
  "TotalReadoutTime": 0.0522511,
  "TxRefAmp": 229.552,
  "time": {
    "samples": {
      "AcquisitionNumber": [
        1,
        2,
        3,
        4,
        5,
        6,
        7,
        8,
        9,
        10,
        11,
        12,
        13,
        14,
        15,
        16,
        17,
        18,
        19,
        20,
        21,
        22,
        23,
        24,
        25,
        26,
        27,
        28,
        29,
        30,
        31,
        32,
        33,
        34,
        35,
        36,
        37,
        38,
        39,
        40,
        41,
        42,
        43,
        44,
        45,
        46,
        47,
        48,
        49,
        50,
        51,
        52,
        53,
        54,
        55,
        56,
        57,
        58,
        59,
        60,
        61,
        62,
        63,
        64,
        65,
        66,
        67,
        68,
        69,
        70,
        71,
        72,
        73,
        74,
        75,
        76,
        77,
        78,
        79,
        80,
        81,
        82,
        83,
        84,
        85,
        86,
        87,
        88,
        89,
        90,
        91,
        92,
        93,
        94,
        95,
        96,
        97,
        98,
        99,
        100,
        101,
        102,
        103,
        104,
        105,
        106,
        107,
        108,
        109,
        110,
        111,
        112,
        113,
        114,
        115,
        116,
        117,
        118,
        119,
        120,
        121,
        122,
        123,
        124,
        125,
        126,
        127,
        128,
        129,
        130,
        131,
        132,
        133,
        134,
        135,
        136,
        137,
        138,
        139,
        140,
        141,
        142,
        143,
        144,
        145,
        146,
        147,
        148,
        149,
        150,
        151,
        152,
        153,
        154,
        155,
        156,
        157,
        158,
        159,
        160,
        161,
        162,
        163,
        164,
        165,
        166,
        167,
        168,
        169,
        170,
        171,
        172,
        173,
        174,
        175,
        176,
        177,
        178,
        179,
        180,
        181,
        182,
        183,
        184,
        185,
        186,
        187,
        188,
        189,
        190,
        191,
        192,
        193,
        194,
        195,
        196,
        197,
        198,
        199,
        200,
        201,
        202,
        203,
        204,
        205,
        206,
        207,
        208,
        209,
        210,
        211,
        212,
        213,
        214,
        215,
        216,
        217,
        218,
        219,
        220,
        221,
        222,
        223,
        224,
        225,
        226,
        227,
        228,
        229,
        230,
        231,
        232,
        233,
        234,
        235,
        236,
        237,
        238,
        239,
        240,
        241,
        242,
        243,
        244,
        245,
        246,
        247,
        248,
        249,
        250,
        251,
        252,
        253,
        254,
        255,
        256,
        257,
        258,
        259,
        260,
        261,
        262,
        263,
        264,
        265,
        266,
        267,
        268,
        269,
        270,
        271,
        272,
        273,
        274,
        275,
        276,
        277,
        278,
        279,
        280,
        281,
        282,
        283,
        284,
        285,
        286,
        287,
        288
      ],
      "AcquisitionTime": [
        "102643.147500",
        "102644.147500",
        "102645.147500",
        "102646.147500",
        "102647.147500",
        "102648.147500",
        "102649.147500",
        "102650.147500",
        "102651.147500",
        "102652.147500",
        "102653.147500",
        "102654.147500",
        "102655.147500",
        "102656.147500",
        "102657.147500",
        "102658.147500",
        "102659.147500",
        "102700.147500",
        "102701.147500",
        "102702.147500",
        "102703.147500",
        "102704.147500",
        "102705.147500",
        "102706.147500",
        "102707.147500",
        "102708.147500",
        "102709.147500",
        "102710.147500",
        "102711.147500",
        "102712.147500",
        "102713.147500",
        "102714.147500",
        "102715.147500",
        "102716.147500",
        "102717.147500",
        "102718.147500",
        "102719.147500",
        "102720.147500",
        "102721.147500",
        "102722.147500",
        "102723.147500",
        "102724.147500",
        "102725.147500",
        "102726.147500",
        "102727.147500",
        "102728.147500",
        "102729.147500",
        "102730.147500",
        "102731.147500",
        "102732.147500",
        "102733.147500",
        "102734.147500",
        "102735.147500",
        "102736.147500",
        "102737.147500",
        "102738.147500",
        "102739.147500",
        "102740.147500",
        "102741.147500",
        "102742.147500",
        "102743.147500",
        "102744.147500",
        "102745.147500",
        "102746.147500",
        "102747.147500",
        "102748.147500",
        "102749.147500",
        "102750.147500",
        "102751.147500",
        "102752.147500",
        "102753.147500",
        "102754.147500",
        "102755.147500",
        "102756.147500",
        "102757.147500",
        "102758.147500",
        "102759.147500",
        "102800.147500",
        "102801.147500",
        "102802.147500",
        "102803.147500",
        "102804.147500",
        "102805.147500",
        "102806.147500",
        "102807.147500",
        "102808.147500",
        "102809.147500",
        "102810.147500",
        "102811.147500",
        "102812.147500",
        "102813.147500",
        "102814.147500",
        "102815.147500",
        "102816.147500",
        "102817.147500",
        "102818.147500",
        "102819.147500",
        "102820.147500",
        "102821.147500",
        "102822.147500",
        "102823.147500",
        "102824.147500",
        "102825.147500",
        "102826.147500",
        "102827.147500",
        "102828.147500",
        "102829.147500",
        "102830.147500",
        "102831.147500",
        "102832.147500",
        "102833.147500",
        "102834.147500",
        "102835.147500",
        "102836.147500",
        "102837.147500",
        "102838.147500",
        "102839.147500",
        "102840.147500",
        "102841.147500",
        "102842.147500",
        "102843.147500",
        "102844.147500",
        "102845.147500",
        "102846.147500",
        "102847.147500",
        "102848.147500",
        "102849.147500",
        "102850.147500",
        "102851.147500",
        "102852.147500",
        "102853.147500",
        "102854.147500",
        "102855.147500",
        "102856.147500",
        "102857.147500",
        "102858.147500",
        "102859.147500",
        "102900.147500",
        "102901.147500",
        "102902.147500",
        "102903.147500",
        "102904.147500",
        "102905.147500",
        "102906.147500",
        "102907.147500",
        "102908.147500",
        "102909.147500",
        "102910.147500",
        "102911.147500",
        "102912.147500",
        "102913.147500",
        "102914.147500",
        "102915.147500",
        "102916.147500",
        "102917.147500",
        "102918.147500",
        "102919.147500",
        "102920.147500",
        "102921.147500",
        "102922.147500",
        "102923.147500",
        "102924.147500",
        "102925.147500",
        "102926.147500",
        "102927.147500",
        "102928.147500",
        "102929.147500",
        "102930.147500",
        "102931.147500",
        "102932.147500",
        "102933.147500",
        "102934.147500",
        "102935.147500",
        "102936.147500",
        "102937.147500",
        "102938.147500",
        "102939.147500",
        "102940.147500",
        "102941.147500",
        "102942.147500",
        "102943.147500",
        "102944.147500",
        "102945.147500",
        "102946.147500",
        "102947.147500",
        "102948.147500",
        "102949.147500",
        "102950.147500",
        "102951.147500",
        "102952.147500",
        "102953.147500",
        "102954.147500",
        "102955.147500",
        "102956.147500",
        "102957.147500",
        "102958.147500",
        "102959.147500",
        "103000.147500",
        "103001.147500",
        "103002.147500",
        "103003.147500",
        "103004.147500",
        "103005.147500",
        "103006.147500",
        "103007.147500",
        "103008.147500",
        "103009.147500",
        "103010.147500",
        "103011.147500",
        "103012.147500",
        "103013.147500",
        "103014.147500",
        "103015.147500",
        "103016.147500",
        "103017.147500",
        "103018.147500",
        "103019.147500",
        "103020.147500",
        "103021.147500",
        "103022.147500",
        "103023.147500",
        "103024.147500",
        "103025.147500",
        "103026.147500",
        "103027.147500",
        "103028.147500",
        "103029.147500",
        "103030.147500",
        "103031.147500",
        "103032.147500",
        "103033.147500",
        "103034.147500",
        "103035.147500",
        "103036.147500",
        "103037.147500",
        "103038.147500",
        "103039.147500",
        "103040.147500",
        "103041.147500",
        "103042.147500",
        "103043.147500",
        "103044.147500",
        "103045.147500",
        "103046.147500",
        "103047.147500",
        "103048.147500",
        "103049.147500",
        "103050.147500",
        "103051.147500",
        "103052.147500",
        "103053.147500",
        "103054.147500",
        "103055.147500",
        "103056.147500",
        "103057.147500",
        "103058.147500",
        "103059.147500",
        "103100.147500",
        "103101.147500",
        "103102.147500",
        "103103.147500",
        "103104.147500",
        "103105.147500",
        "103106.147500",
        "103107.147500",
        "103108.147500",
        "103109.147500",
        "103110.147500",
        "103111.147500",
        "103112.147500",
        "103113.147500",
        "103114.147500",
        "103115.147500",
        "103116.147500",
        "103117.147500",
        "103118.147500",
        "103119.147500",
        "103120.147500",
        "103121.147500",
        "103122.147500",
        "103123.147500",
        "103124.147500",
        "103125.147500",
        "103126.147500",
        "103127.147500",
        "103128.147500",
        "103129.147500",
        "103130.147500"
      ],
      "ContentTime": [
        "102644.479000",
        "102645.346000",
        "102646.318000",
        "102647.283000",
        "102648.296000",
        "102649.294000",
        "102650.298000",
        "102651.348000",
        "102652.303000",
        "102653.310000",
        "102654.315000",
        "102655.306000",
        "102656.294000",
        "102657.324000",
        "102658.278000",
        "102659.283000",
        "102700.289000",
        "102701.279000",
        "102702.306000",
        "102703.303000",
        "102704.287000",
        "102705.361000",
        "102706.283000",
        "102707.298000",
        "102708.339000",
        "102709.319000",
        "102710.329000",
        "102711.272000",
        "102712.341000",
        "102713.338000",
        "102714.300000",
        "102715.301000",
        "102716.287000",
        "102717.299000",
        "102718.296000",
        "102719.348000",
        "102720.287000",
        "102721.293000",
        "102722.285000",
        "102723.305000",
        "102724.289000",
        "102725.276000",
        "102726.279000",
        "102727.312000",
        "102728.291000",
        "102729.288000",
        "102730.296000",
        "102731.318000",
        "102732.288000",
        "102733.314000",
        "102734.298000",
        "102735.286000",
        "102736.276000",
        "102737.296000",
        "102738.302000",
        "102739.296000",
        "102740.280000",
        "102741.284000",
        "102742.292000",
        "102743.288000",
        "102744.306000",
        "102745.267000",
        "102746.299000",
        "102747.281000",
        "102748.276000",
        "102749.298000",
        "102750.294000",
        "102751.304000",
        "102752.285000",
        "102753.313000",
        "102754.303000",
        "102755.266000",
        "102756.278000",
        "102757.293000",
        "102758.315000",
        "102759.288000",
        "102800.298000",
        "102801.283000",
        "102802.283000",
        "102803.298000",
        "102804.351000",
        "102805.353000",
        "102806.315000",
        "102807.284000",
        "102808.279000",
        "102809.304000",
        "102810.309000",
        "102811.319000",
        "102812.282000",
        "102813.283000",
        "102814.288000",
        "102815.279000",
        "102816.298000",
        "102817.287000",
        "102818.282000",
        "102819.305000",
        "102820.301000",
        "102821.303000",
        "102822.298000",
        "102823.294000",
        "102824.292000",
        "102825.313000",
        "102826.317000",
        "102827.307000",
        "102828.295000",
        "102829.321000",
        "102830.321000",
        "102831.300000",
        "102832.294000",
        "102833.315000",
        "102834.283000",
        "102835.314000",
        "102836.302000",
        "102837.318000",
        "102838.293000",
        "102839.307000",
        "102840.286000",
        "102841.288000",
        "102842.300000",
        "102843.335000",
        "102844.316000",
        "102845.285000",
        "102846.283000",
        "102847.300000",
        "102848.290000",
        "102849.296000",
        "102850.307000",
        "102851.299000",
        "102852.270000",
        "102853.322000",
        "102854.302000",
        "102855.281000",
        "102856.319000",
        "102857.321000",
        "102858.305000",
        "102859.273000",
        "102900.293000",
        "102901.274000",
        "102902.291000",
        "102903.332000",
        "102904.305000",
        "102905.265000",
        "102906.304000",
        "102907.307000",
        "102908.270000",
        "102909.294000",
        "102910.264000",
        "102911.352000",
        "102912.332000",
        "102913.298000",
        "102914.319000",
        "102915.329000",
        "102916.312000",
        "102917.284000",
        "102918.302000",
        "102919.286000",
        "102920.341000",
        "102921.332000",
        "102922.300000",
        "102923.315000",
        "102924.349000",
        "102925.307000",
        "102926.337000",
        "102927.300000",
        "102928.297000",
        "102929.342000",
        "102930.333000",
        "102931.306000",
        "102932.286000",
        "102933.305000",
        "102934.307000",
        "102935.288000",
        "102936.277000",
        "102937.308000",
        "102938.307000",
        "102939.291000",
        "102940.284000",
        "102941.299000",
        "102942.276000",
        "102943.285000",
        "102944.308000",
        "102945.300000",
        "102946.321000",
        "102947.281000",
        "102948.311000",
        "102949.275000",
        "102950.292000",
        "102951.309000",
        "102952.291000",
        "102953.261000",
        "102954.301000",
        "102955.291000",
        "102956.304000",
        "102957.318000",
        "102958.340000",
        "102959.285000",
        "103000.281000",
        "103001.297000",
        "103002.285000",
        "103003.345000",
        "103004.321000",
        "103005.321000",
        "103006.314000",
        "103007.290000",
        "103008.271000",
        "103009.306000",
        "103010.291000",
        "103011.332000",
        "103012.320000",
        "103013.309000",
        "103014.279000",
        "103015.278000",
        "103016.293000",
        "103017.320000",
        "103018.309000",
        "103019.331000",
        "103020.304000",
        "103021.277000",
        "103022.266000",
        "103023.310000",
        "103024.329000",
        "103025.279000",
        "103026.320000",
        "103027.310000",
        "103028.305000",
        "103029.307000",
        "103030.305000",
        "103031.309000",
        "103032.311000",
        "103033.258000",
        "103034.277000",
        "103035.314000",
        "103036.269000",
        "103037.330000",
        "103038.316000",
        "103039.380000",
        "103040.288000",
        "103041.304000",
        "103042.310000",
        "103043.305000",
        "103044.291000",
        "103045.346000",
        "103046.305000",
        "103047.307000",
        "103048.294000",
        "103049.266000",
        "103050.290000",
        "103051.278000",
        "103052.296000",
        "103053.309000",
        "103054.309000",
        "103055.333000",
        "103056.304000",
        "103057.293000",
        "103058.282000",
        "103059.284000",
        "103100.300000",
        "103101.333000",
        "103102.280000",
        "103103.300000",
        "103104.330000",
        "103105.298000",
        "103106.285000",
        "103107.294000",
        "103108.290000",
        "103109.281000",
        "103110.306000",
        "103111.291000",
        "103112.286000",
        "103113.310000",
        "103114.282000",
        "103115.286000",
        "103116.285000",
        "103117.295000",
        "103118.264000",
        "103119.290000",
        "103120.302000",
        "103121.306000",
        "103122.300000",
        "103123.292000",
        "103124.293000",
        "103125.309000",
        "103126.307000",
        "103127.289000",
        "103128.272000",
        "103129.291000",
        "103130.303000",
        "103131.336000"
      ],
      "InstanceCreationTime": [
        "102644.479000",
        "102645.346000",
        "102646.318000",
        "102647.283000",
        "102648.296000",
        "102649.294000",
        "102650.298000",
        "102651.348000",
        "102652.303000",
        "102653.310000",
        "102654.315000",
        "102655.306000",
        "102656.294000",
        "102657.324000",
        "102658.278000",
        "102659.283000",
        "102700.289000",
        "102701.279000",
        "102702.306000",
        "102703.303000",
        "102704.287000",
        "102705.361000",
        "102706.283000",
        "102707.298000",
        "102708.339000",
        "102709.319000",
        "102710.329000",
        "102711.272000",
        "102712.341000",
        "102713.338000",
        "102714.300000",
        "102715.301000",
        "102716.287000",
        "102717.299000",
        "102718.296000",
        "102719.348000",
        "102720.287000",
        "102721.293000",
        "102722.285000",
        "102723.305000",
        "102724.289000",
        "102725.276000",
        "102726.279000",
        "102727.312000",
        "102728.291000",
        "102729.288000",
        "102730.296000",
        "102731.318000",
        "102732.288000",
        "102733.314000",
        "102734.298000",
        "102735.286000",
        "102736.276000",
        "102737.296000",
        "102738.302000",
        "102739.296000",
        "102740.280000",
        "102741.284000",
        "102742.292000",
        "102743.288000",
        "102744.306000",
        "102745.267000",
        "102746.299000",
        "102747.281000",
        "102748.276000",
        "102749.298000",
        "102750.294000",
        "102751.304000",
        "102752.285000",
        "102753.313000",
        "102754.303000",
        "102755.266000",
        "102756.278000",
        "102757.293000",
        "102758.315000",
        "102759.288000",
        "102800.298000",
        "102801.283000",
        "102802.283000",
        "102803.298000",
        "102804.351000",
        "102805.353000",
        "102806.315000",
        "102807.284000",
        "102808.279000",
        "102809.304000",
        "102810.309000",
        "102811.319000",
        "102812.282000",
        "102813.283000",
        "102814.288000",
        "102815.279000",
        "102816.298000",
        "102817.287000",
        "102818.282000",
        "102819.305000",
        "102820.301000",
        "102821.303000",
        "102822.298000",
        "102823.294000",
        "102824.292000",
        "102825.313000",
        "102826.317000",
        "102827.307000",
        "102828.295000",
        "102829.321000",
        "102830.321000",
        "102831.300000",
        "102832.294000",
        "102833.315000",
        "102834.283000",
        "102835.314000",
        "102836.302000",
        "102837.318000",
        "102838.293000",
        "102839.307000",
        "102840.286000",
        "102841.288000",
        "102842.300000",
        "102843.335000",
        "102844.316000",
        "102845.285000",
        "102846.283000",
        "102847.300000",
        "102848.290000",
        "102849.296000",
        "102850.307000",
        "102851.299000",
        "102852.270000",
        "102853.322000",
        "102854.302000",
        "102855.281000",
        "102856.319000",
        "102857.321000",
        "102858.305000",
        "102859.273000",
        "102900.293000",
        "102901.274000",
        "102902.291000",
        "102903.332000",
        "102904.305000",
        "102905.265000",
        "102906.304000",
        "102907.307000",
        "102908.270000",
        "102909.294000",
        "102910.264000",
        "102911.352000",
        "102912.332000",
        "102913.298000",
        "102914.319000",
        "102915.329000",
        "102916.312000",
        "102917.284000",
        "102918.302000",
        "102919.286000",
        "102920.341000",
        "102921.332000",
        "102922.300000",
        "102923.315000",
        "102924.349000",
        "102925.307000",
        "102926.337000",
        "102927.300000",
        "102928.297000",
        "102929.342000",
        "102930.333000",
        "102931.306000",
        "102932.286000",
        "102933.305000",
        "102934.307000",
        "102935.288000",
        "102936.277000",
        "102937.308000",
        "102938.307000",
        "102939.291000",
        "102940.284000",
        "102941.299000",
        "102942.276000",
        "102943.285000",
        "102944.308000",
        "102945.300000",
        "102946.321000",
        "102947.281000",
        "102948.311000",
        "102949.275000",
        "102950.292000",
        "102951.309000",
        "102952.291000",
        "102953.261000",
        "102954.301000",
        "102955.291000",
        "102956.304000",
        "102957.318000",
        "102958.340000",
        "102959.285000",
        "103000.281000",
        "103001.297000",
        "103002.285000",
        "103003.345000",
        "103004.321000",
        "103005.321000",
        "103006.314000",
        "103007.290000",
        "103008.271000",
        "103009.306000",
        "103010.291000",
        "103011.332000",
        "103012.320000",
        "103013.309000",
        "103014.279000",
        "103015.278000",
        "103016.293000",
        "103017.320000",
        "103018.309000",
        "103019.331000",
        "103020.304000",
        "103021.277000",
        "103022.266000",
        "103023.310000",
        "103024.329000",
        "103025.279000",
        "103026.320000",
        "103027.310000",
        "103028.305000",
        "103029.307000",
        "103030.305000",
        "103031.309000",
        "103032.311000",
        "103033.258000",
        "103034.277000",
        "103035.314000",
        "103036.269000",
        "103037.330000",
        "103038.316000",
        "103039.380000",
        "103040.288000",
        "103041.304000",
        "103042.310000",
        "103043.305000",
        "103044.291000",
        "103045.346000",
        "103046.305000",
        "103047.307000",
        "103048.294000",
        "103049.266000",
        "103050.290000",
        "103051.278000",
        "103052.296000",
        "103053.309000",
        "103054.309000",
        "103055.333000",
        "103056.304000",
        "103057.293000",
        "103058.282000",
        "103059.284000",
        "103100.300000",
        "103101.333000",
        "103102.280000",
        "103103.300000",
        "103104.330000",
        "103105.298000",
        "103106.285000",
        "103107.294000",
        "103108.290000",
        "103109.281000",
        "103110.306000",
        "103111.291000",
        "103112.286000",
        "103113.310000",
        "103114.282000",
        "103115.286000",
        "103116.285000",
        "103117.295000",
        "103118.264000",
        "103119.290000",
        "103120.302000",
        "103121.306000",
        "103122.300000",
        "103123.292000",
        "103124.293000",
        "103125.309000",
        "103126.307000",
        "103127.289000",
        "103128.272000",
        "103129.291000",
        "103130.303000",
        "103131.336000"
      ],
      "InstanceNumber": [
        1,
        2,
        3,
        4,
        5,
        6,
        7,
        8,
        9,
        10,
        11,
        12,
        13,
        14,
        15,
        16,
        17,
        18,
        19,
        20,
        21,
        22,
        23,
        24,
        25,
        26,
        27,
        28,
        29,
        30,
        31,
        32,
        33,
        34,
        35,
        36,
        37,
        38,
        39,
        40,
        41,
        42,
        43,
        44,
        45,
        46,
        47,
        48,
        49,
        50,
        51,
        52,
        53,
        54,
        55,
        56,
        57,
        58,
        59,
        60,
        61,
        62,
        63,
        64,
        65,
        66,
        67,
        68,
        69,
        70,
        71,
        72,
        73,
        74,
        75,
        76,
        77,
        78,
        79,
        80,
        81,
        82,
        83,
        84,
        85,
        86,
        87,
        88,
        89,
        90,
        91,
        92,
        93,
        94,
        95,
        96,
        97,
        98,
        99,
        100,
        101,
        102,
        103,
        104,
        105,
        106,
        107,
        108,
        109,
        110,
        111,
        112,
        113,
        114,
        115,
        116,
        117,
        118,
        119,
        120,
        121,
        122,
        123,
        124,
        125,
        126,
        127,
        128,
        129,
        130,
        131,
        132,
        133,
        134,
        135,
        136,
        137,
        138,
        139,
        140,
        141,
        142,
        143,
        144,
        145,
        146,
        147,
        148,
        149,
        150,
        151,
        152,
        153,
        154,
        155,
        156,
        157,
