{
  "AcquisitionMatrixPE": 120,
  "AcquisitionNumber": 1,
  "AcquisitionTime": "16:01:59.515000",
  "BandwidthPerPixelPhaseEncode": 13.889,
  "BaseResolution": 120,
  "BodyPartExamined": "BRAIN",
  "ConsistencyInfo": "N4_VE11C_LATEST_20160120",
  "ConversionSoftware": "dcm2niix",
  "ConversionSoftwareVersion": "v1.0.20171215 (OpenJPEG build) GCC6.3.0",
  "DerivedVendorReportedEchoSpacing": 0.000599995,
  "DeviceSerialNumber": "66112",
  "DwellTime": 2e-06,
  "EchoTime": 0.103,
  "EchoTrainLength": 120,
  "EffectiveEchoSpacing": 0.000599995,
  "FlipAngle": 90,
  "ImageOrientationPatientDICOM": [0.99927, 0.0317019, -0.0213091, -0.0305305, 0.998116, 0.0532139],
  "ImageType": [
    "ORIGINAL",
    "PRIMARY",
    "DIFFUSION",
    "NONE",
    "ND",
    "NORM",
    "MOSAIC"
],
  "InPlanePhaseEncodingDirectionDICOM": "COL",
  "InstitutionAddress": "Maynard_3_Hanover_NH_US_03755",
  "InstitutionName": "Dartmouth_College_-_PBS",
  "InstitutionalDepartmentName": "Department",
  "MRAcquisitionType": "2D",
  "MagneticFieldStrength": 3,
  "Manufacturer": "Siemens",
  "ManufacturersModelName": "Prisma",
  "Modality": "MR",
  "MultibandAccelerationFactor": 4,
  "PartialFourier": 1,
  "PatientPosition": "HFS",
  "PercentPhaseFOV": 100,
  "PhaseEncodingDirection": "j-",
  "PhaseEncodingSteps": 120,
  "PhaseResolution": 1,
  "PixelBandwidth": 2085,
  "ProcedureStepDescription": "Gobbini_Matteo_1038_hyperface",
  "ProtocolName": "dwi_acq-2.0mmXhardi96Xsms4X11b0",
  "PulseSequenceDetails": "%SiemensSeq%_ep2d_diff",
  "ReceiveCoilActiveElements": "HEA;HEP",
  "ReceiveCoilName": "Head_32",
  "ReconMatrixPE": 120,
  "RepetitionTime": 2.6,
  "SAR": 0.323352,
  "ScanOptions": "FS",
  "ScanningSequence": "EP",
  "SequenceName": "_ep_b0",
  "SequenceVariant": "SK_SP",
  "SeriesDescription": "dwi_acq-2.0mmXhardi96Xsms4X11b0",
  "SeriesNumber": 66,
  "ShimSetting": [4139, -7730, -7334, 738, -40, -35, 104, 115],
  "SliceThickness": 2,
  "SliceTiming": [1.935, 0, 1.29, 0.1625, 1.4525, 0.3225, 1.6125, 0.485, 1.775, 0.8075, 2.0975, 0.9675, 2.2575, 1.13, 2.42, 0.645, 1.935, 0, 1.29, 0.1625, 1.4525, 0.3225, 1.6125, 0.485, 1.775, 0.8075, 2.0975, 0.9675, 2.2575, 1.13, 2.42, 0.645, 1.935, 0, 1.29, 0.1625, 1.4525, 0.3225, 1.6125, 0.485, 1.775, 0.8075, 2.0975, 0.9675, 2.2575, 1.13, 2.42, 0.645, 1.935, 0, 1.29, 0.1625, 1.4525, 0.3225, 1.6125, 0.485, 1.775, 0.8075, 2.0975, 0.9675, 2.2575, 1.13, 2.42, 0.645],
  "SoftwareVersions": "syngo_MR_E11",
  "SpacingBetweenSlices": 2,
  "StationName": "AWP66112",
  "TotalReadoutTime": 0.0713994,
  "TxRefAmp": 248.024,
  "dcmmeta_affine": [
    [-1.9985404014587402, -0.061061035841703415, -0.04591196030378342, 124.16647338867188],
    [-0.06340379267930984, 1.9962326288223267, 0.10504905134439468, -100.74813842773438],
    [-0.0426182746887207, -0.1064278781414032, 1.9967114925384521, -65.38224792480469],
    [0.0, 0.0, 0.0, 1.0]
],
  "dcmmeta_reorient_transform": [
    [0.0, -1.0, 0.0, 119.0],
    [1.0, 0.0, 0.0, 0.0],
    [0.0, 0.0, 1.0, 0.0],
    [0.0, 0.0, 0.0, 1.0]
],
  "dcmmeta_shape": [120, 120, 64, 107],
  "dcmmeta_slice_dim": 2,
  "dcmmeta_version": 0.6,
  "global": {
    "const": {
      "AccessionNumber": "A001353",
      "AcquisitionMatrix": [120, 0, 0, 120],
      "AngioFlag": "N",
      "BitsAllocated": 16,
      "BitsStored": 12,
      "BodyPartExamined": "BRAIN",
      "Columns": 960,
      "EchoNumbers": 1,
      "EchoTime": 103.0,
      "EchoTrainLength": 120,
      "FlipAngle": 90.0,
      "HighBit": 11,
      "ImageOrientationPatient": [0.99927018890411, 0.03170189677527, -0.0213091367353, -0.0305305186008, 0.99811630798355, 0.05321393775377],
      "ImagePositionPatient": [-930.64153382713, -1001.8508374388, -104.84719876047],
      "ImageType": [
        "ORIGINAL",
        "PRIMARY",
        "DIFFUSION",
        "NONE",
        "ND",
        "NORM",
        "MOSAIC"
],
      "ImagedNucleus": "1H",
      "ImagingFrequency": 123.252294,
      "InPlanePhaseEncodingDirection": "COL",
      "MRAcquisitionType": "2D",
      "MagneticFieldStrength": 3.0,
      "Manufacturer": "SIEMENS",
      "ManufacturerModelName": "Prisma",
      "Modality": "MR",
      "NumberOfAverages": 1.0,
      "NumberOfPhaseEncodingSteps": 120,
      "PercentPhaseFieldOfView": 100.0,
      "PercentSampling": 100.0,
      "PerformedProcedureStepStartTime": "145701.742000",
      "PhotometricInterpretation": "MONOCHROME2",
      "PixelBandwidth": 2085.0,
      "PixelRepresentation": 0,
      "PixelSpacing": [2.0, 2.0],
      "PositionReferenceIndicator": "",
      "ProtocolName": "dwi_acq-2.0mmXhardi96Xsms4X11b0",
      "RepetitionTime": 2600.0,
      "Rows": 960,
      "SAR": 0.32335221067645,
      "SamplesPerPixel": 1,
      "ScanOptions": "FS",
      "ScanningSequence": "EP",
      "SequenceVariant": [
        "SK",
        "SP"
],
      "SeriesDescription": "dwi_acq-2.0mmXhardi96Xsms4X11b0",
      "SeriesNumber": 66,
      "SeriesTime": "160301.603000",
      "SliceLocation": -73.416854556287,
      "SliceThickness": 2.0,
      "SmallestImagePixelValue": 0,
      "SoftwareVersions": "syngo MR E11",
      "SpacingBetweenSlices": 2.0000000550916,
      "SpecificCharacterSet": "ISO_IR 100",
      "StudyID": "2",
      "StudyTime": "145701.690000",
      "TransmitCoilName": "Body",
      "VariableFlipAngleFlag": "N",
      "WindowCenterWidthExplanation": "Algo1",
      "dBdt": 0.0},
    "slices": {}
  },
  "time": {
    "samples": {
      "AcquisitionNumber": [1, 2, 3, 4, 5, 6, 7, 8, 9, 10, 11, 12, 13, 14, 15, 16, 17, 18, 19, 20, 21, 22, 23, 24, 25, 26, 27, 28, 29, 30, 31, 32, 33, 34, 35, 36, 37, 38, 39, 40, 41, 42, 43, 44, 45, 46, 47, 48, 49, 50, 51, 52, 53, 54, 55, 56, 57, 58, 59, 60, 61, 62, 63, 64, 65, 66, 67, 68, 69, 70, 71, 72, 73, 74, 75, 76, 77, 78, 79, 80, 81, 82, 83, 84, 85, 86, 87, 88, 89, 90, 91, 92, 93, 94, 95, 96, 97, 98, 99, 100, 101, 102, 103, 104, 105, 106, 107],
      "AcquisitionTime": ["160159.515000", "160202.115000", "160204.715000", "160207.315000", "160209.915000", "160212.515000", "160215.115000", "160217.715000", "160220.315000", "160222.915000", "160225.515000", "160228.115000", "160230.715000", "160233.315000", "160235.915000", "160238.515000", "160241.115000", "160243.715000", "160246.315000", "160248.915000", "160251.515000", "160254.115000", "160256.715000", "160259.315000", "160301.915000", "160304.515000", "160307.115000", "160309.715000", "160312.315000", "160314.915000", "160317.515000", "160320.115000", "160322.715000", "160325.315000", "160327.915000", "160330.515000", "160333.115000", "160335.715000", "160338.315000", "160340.915000", "160343.515000", "160346.115000", "160348.715000", "160351.315000", "160353.915000", "160356.515000", "160359.115000", "160401.715000", "160404.315000", "160406.915000", "160409.515000", "160412.115000", "160414.715000", "160417.315000", "160419.915000", "160422.515000", "160425.115000", "160427.715000", "160430.315000", "160432.915000", "160435.515000", "160438.115000", "160440.715000", "160443.315000", "160445.915000", "160448.515000", "160451.115000", "160453.715000", "160456.315000", "160458.915000", "160501.515000", "160504.115000", "160506.715000", "160509.315000", "160511.915000", "160514.515000", "160517.115000", "160519.715000", "160522.315000", "160524.915000", "160527.515000", "160530.115000", "160532.715000", "160535.315000", "160537.915000", "160540.515000", "160543.115000", "160545.715000", "160548.315000", "160550.915000", "160553.515000", "160556.115000", "160558.715000", "160601.315000", "160603.915000", "160606.515000", "160609.115000", "160611.715000", "160614.315000", "160616.915000", "160619.515000", "160622.115000", "160624.715000", "160627.315000", "160629.915000", "160632.515000", "160635.115000"],
      "ContentTime": ["160301.607000", "160301.611000", "160301.614000", "160301.626000", "160301.629000", "160301.636000", "160301.639000", "160301.642000", "160301.645000", "160301.649000", "160301.652000", "160301.655000", "160301.658000", "160301.661000", "160301.664000", "160301.667000", "160301.680000", "160301.683000", "160301.686000", "160301.689000", "160301.692000", "160301.696000", "160301.699000", "160301.702000", "160401.603000", "160401.607000", "160401.610000", "160401.613000", "160401.616000", "160401.620000", "160401.629000", "160401.632000", "160401.636000", "160401.639000", "160401.642000", "160401.645000", "160401.648000", "160401.651000", "160401.655000", "160401.658000", "160401.661000", "160401.664000", "160401.667000", "160401.671000", "160401.674000", "160401.677000", "160401.680000", "160501.602000", "160501.606000", "160501.609000", "160501.612000", "160501.615000", "160501.619000", "160501.622000", "160501.625000", "160501.628000", "160501.631000", "160501.642000", "160501.645000", "160501.648000", "160501.652000", "160501.655000", "160501.658000", "160501.661000", "160501.665000", "160501.668000", "160501.671000", "160501.674000", "160501.677000", "160501.680000", "160601.602000", "160601.606000", "160601.609000", "160601.612000", "160601.615000", "160601.618000", "160601.622000", "160601.625000", "160601.628000", "160601.631000", "160601.634000", "160601.637000", "160601.641000", "160601.644000", "160601.647000", "160601.650000", "160601.653000", "160601.656000", "160601.659000", "160601.663000", "160601.666000", "160601.669000", "160601.672000", "160636.996000", "160637.000000", "160637.003000", "160637.006000", "160637.010000", "160637.013000", "160637.016000", "160637.019000", "160637.022000", "160637.025000", "160637.029000", "160637.032000", "160637.035000", "160637.038000"],
      "InstanceCreationTime": ["160301.607000", "160301.611000", "160301.614000", "160301.626000", "160301.629000", "160301.636000", "160301.639000", "160301.642000", "160301.645000", "160301.649000", "160301.652000", "160301.655000", "160301.658000", "160301.661000", "160301.664000", "160301.667000", "160301.680000", "160301.683000", "160301.686000", "160301.689000", "160301.692000", "160301.696000", "160301.699000", "160301.702000", "160401.603000", "160401.607000", "160401.610000", "160401.613000", "160401.616000", "160401.620000", "160401.629000", "160401.632000", "160401.636000", "160401.639000", "160401.642000", "160401.645000", "160401.648000", "160401.651000", "160401.655000", "160401.658000", "160401.661000", "160401.664000", "160401.667000", "160401.671000", "160401.674000", "160401.677000", "160401.680000", "160501.602000", "160501.606000", "160501.609000", "160501.612000", "160501.615000", "160501.619000", "160501.622000", "160501.625000", "160501.628000", "160501.631000", "160501.642000", "160501.645000", "160501.648000", "160501.652000", "160501.655000", "160501.658000", "160501.661000", "160501.665000", "160501.668000", "160501.671000", "160501.674000", "160501.677000", "160501.680000", "160601.602000", "160601.606000", "160601.609000", "160601.612000", "160601.615000", "160601.618000", "160601.622000", "160601.625000", "160601.628000", "160601.631000", "160601.634000", "160601.637000", "160601.641000", "160601.644000", "160601.647000", "160601.650000", "160601.653000", "160601.656000", "160601.659000", "160601.663000", "160601.666000", "160601.669000", "160601.672000", "160636.996000", "160637.000000", "160637.003000", "160637.006000", "160637.010000", "160637.013000", "160637.016000", "160637.019000", "160637.022000", "160637.025000", "160637.029000", "160637.032000", "160637.035000", "160637.038000"],
      "InstanceNumber": [1, 2, 3, 4, 5, 6, 7, 8, 9, 10, 11, 12, 13, 14, 15, 16, 17, 18, 19, 20, 21, 22, 23, 24, 25, 26, 27, 28, 29, 30, 31, 32, 33, 34, 35, 36, 37, 38, 39, 40, 41, 42, 43, 44, 45, 46, 47, 48, 49, 50, 51, 52, 53, 54, 55, 56, 57, 58, 59, 60, 61, 62, 63, 64, 65, 66, 67, 68, 69, 70, 71, 72, 73, 74, 75, 76, 77, 78, 79, 80, 81, 82, 83, 84, 85, 86, 87, 88, 89, 90, 91, 92, 93, 94, 95, 96, 97, 98, 99, 100, 101, 102, 103, 104, 105, 106, 107],
      "LargestImagePixelValue": [2955, 2813, 533, 603, 541, 601, 530, 588, 580, 449, 555, 2382, 554, 609, 525, 553, 644, 583, 568, 566, 614, 565, 2949, 625, 569, 510, 579, 644, 488, 660, 633, 485, 614, 2318, 502, 522, 555, 549, 607, 558, 569, 593, 603, 551, 2129, 571, 649, 596, 614, 575, 569, 612, 577, 558, 592, 2746, 575, 535, 514, 511, 556, 603, 589, 491, 647, 517, 2100, 598, 505, 539, 542, 583, 596, 658, 607, 662, 548, 2145, 599, 507, 559, 517, 544, 606, 574, 598, 492, 2192, 585, 579, 633, 552, 587, 530, 653, 627, 548, 2008, 580, 621, 557, 544, 622, 665, 481, 560, 568],
      "SequenceName": [
        "*ep_b0",
        "*ep_b0",
        "*ep_b1000#2",
        "*ep_b1000#3",
        "*ep_b1000#4",
        "*ep_b1000#5",
        "*ep_b1000#6",
        "*ep_b1000#7",
        "*ep_b1000#8",
        "*ep_b1000#9",
        "*ep_b1000#10",
        "*ep_b0",
        "*ep_b1000#12",
        "*ep_b1000#13",
        "*ep_b1000#14",
        "*ep_b1000#15",
        "*ep_b1000#16",
        "*ep_b1000#17",
        "*ep_b1000#18",
        "*ep_b1000#19",
        "*ep_b1000#20",
        "*ep_b1000#21",
        "*ep_b0",
        "*ep_b1000#23",
        "*ep_b1000#24",
        "*ep_b1000#25",
        "*ep_b1000#26",
        "*ep_b1000#27",
        "*ep_b1000#28",
        "*ep_b1000#29",
        "*ep_b1000#30",
        "*ep_b1000#31",
        "*ep_b1000#32",
        "*ep_b0",
        "*ep_b1000#34",
        "*ep_b1000#35",
        "*ep_b1000#36",
        "*ep_b1000#37",
        "*ep_b1000#38",
        "*ep_b1000#39",
        "*ep_b1000#40",
        "*ep_b1000#41",
        "*ep_b1000#42",
        "*ep_b1000#43",
        "*ep_b0",
        "*ep_b1000#45",
        "*ep_b1000#46",
        "*ep_b1000#47",
        "*ep_b1000#48",
        "*ep_b1000#49",
        "*ep_b1000#50",
        "*ep_b1000#51",
        "*ep_b1000#52",
        "*ep_b1000#53",
        "*ep_b1000#54",
        "*ep_b0",
        "*ep_b1000#56",
        "*ep_b1000#57",
        "*ep_b1000#58",
        "*ep_b1000#59",
        "*ep_b1000#60",
        "*ep_b1000#61",
        "*ep_b1000#62",
        "*ep_b1000#63",
        "*ep_b1000#64",
        "*ep_b1000#65",
        "*ep_b0",
        "*ep_b1000#67",
        "*ep_b1000#68",
        "*ep_b1000#69",
        "*ep_b1000#70",
        "*ep_b1000#71",
        "*ep_b1000#72",
        "*ep_b1000#73",
        "*ep_b1000#74",
        "*ep_b1000#75",
        "*ep_b1000#76",
        "*ep_b0",
        "*ep_b1000#78",
        "*ep_b1000#79",
        "*ep_b1000#80",
        "*ep_b1000#81",
        "*ep_b1000#82",
        "*ep_b1000#83",
        "*ep_b1000#84",
        "*ep_b1000#85",
        "*ep_b1000#86",
        "*ep_b0",
        "*ep_b1000#88",
        "*ep_b1000#89",
        "*ep_b1000#90",
        "*ep_b1000#91",
        "*ep_b1000#92",
        "*ep_b1000#93",
        "*ep_b1000#94",
        "*ep_b1000#95",
        "*ep_b1000#96",
        "*ep_b0",
        "*ep_b1000#98",
        "*ep_b1000#99",
        "*ep_b1000#100",
        "*ep_b1000#101",
        "*ep_b1000#102",
        "*ep_b1000#103",
        "*ep_b1000#104",
        "*ep_b1000#105",
        "*ep_b1000#106"
],
      "WindowCenter": [264.0, 256.0, 102.0, 107.0, 103.0, 106.0, 104.0, 103.0, 106.0, 100.0, 106.0, 237.0, 107.0, 103.0, 102.0, 104.0, 106.0, 102.0, 104.0, 106.0, 104.0, 105.0, 259.0, 104.0, 107.0, 104.0, 103.0, 107.0, 102.0, 106.0, 104.0, 103.0, 107.0, 234.0, 104.0, 104.0, 101.0, 106.0, 103.0, 106.0, 104.0, 104.0, 104.0, 106.0, 230.0, 103.0, 104.0, 107.0, 104.0, 105.0, 103.0, 104.0, 105.0, 104.0, 105.0, 249.0, 106.0, 102.0, 104.0, 102.0, 107.0, 105.0, 104.0, 103.0, 104.0, 104.0, 233.0, 104.0, 106.0, 104.0, 103.0, 104.0, 104.0, 106.0, 103.0, 105.0, 103.0, 232.0, 105.0, 104.0, 106.0, 104.0, 105.0, 103.0, 106.0, 106.0, 103.0, 233.0, 104.0, 105.0, 106.0, 105.0, 105.0, 102.0, 107.0, 105.0, 104.0, 228.0, 105.0, 104.0, 103.0, 104.0, 105.0, 105.0, 104.0, 105.0, 102.0],
      "WindowWidth": [600.0, 586.0, 259.0, 270.0, 262.0, 268.0, 264.0, 262.0, 268.0, 256.0, 268.0, 559.0, 269.0, 262.0, 259.0, 265.0, 267.0, 259.0, 264.0, 267.0, 263.0, 266.0, 588.0, 264.0, 269.0, 263.0, 263.0, 269.0, 260.0, 268.0, 263.0, 262.0, 269.0, 553.0, 264.0, 264.0, 257.0, 268.0, 261.0, 267.0, 265.0, 264.0, 263.0, 268.0, 546.0, 261.0, 263.0, 269.0, 264.0, 265.0, 262.0, 263.0, 265.0, 264.0, 265.0, 576.0, 268.0, 259.0, 264.0, 259.0, 270.0, 265.0, 264.0, 261.0, 264.0, 263.0, 551.0, 263.0, 268.0, 264.0, 262.0, 263.0, 263.0, 267.0, 262.0, 266.0, 262.0, 550.0, 266.0, 264.0, 267.0, 263.0, 266.0, 262.0, 267.0, 267.0, 262.0, 552.0, 264.0, 266.0, 268.0, 265.0, 265.0, 259.0, 270.0, 265.0, 263.0, 542.0, 265.0, 263.0, 262.0, 263.0, 266.0, 266.0, 263.0, 266.0, 259.0]
    },
    "slices": {}
  }
}