{
  "AcquisitionMatrixPE": 96,
  "AcquisitionNumber": 1,
  "AcquisitionTime": "11:40:22.195000",
  "BandwidthPerPixelPhaseEncode": 18.939,
  "BaseResolution": 96,
  "BodyPartExamined": "BRAIN",
  "ConsistencyInfo": "N4_VE11C_LATEST_20160120",
  "ConversionSoftware": "dcm2niix",
  "ConversionSoftwareVersion": "v1.0.20171215 (OpenJPEG build) GCC6.3.0",
  "DerivedVendorReportedEchoSpacing": 0.000550011,
  "DeviceSerialNumber": "66112",
  "DwellTime": 2.2e-06,
  "EchoTime": 0.033,
  "EchoTrainLength": 96,
  "EffectiveEchoSpacing": 0.000550011,
  "FlipAngle": 59,
  "ImageOrientationPatientDICOM": [0.999425, 0.0186473, -0.028329, -0.0183174, 0.999762, 0.01186],
  "ImageType": [
    "ORIGINAL",
    "PRIMARY",
    "FMRI",
    "NONE",
    "ND",
    "NORM",
    "MOSAIC"
],
  "InPlanePhaseEncodingDirectionDICOM": "COL",
  "InstitutionAddress": "Maynard_3_Hanover_NH_US_03755",
  "InstitutionName": "Dartmouth_College_-_PBS",
  "InstitutionalDepartmentName": "Department",
  "MRAcquisitionType": "2D",
  "MagneticFieldStrength": 3,
  "Manufacturer": "Siemens",
  "ManufacturersModelName": "Prisma",
  "Modality": "MR",
  "MultibandAccelerationFactor": 4,
  "PartialFourier": 1,
  "PatientPosition": "HFS",
  "PercentPhaseFOV": 100,
  "PhaseEncodingDirection": "j-",
  "PhaseEncodingSteps": 96,
  "PhaseResolution": 1,
  "PixelBandwidth": 2365,
  "ProcedureStepDescription": "Gobbini_Matteo_1038_hyperface",
  "ProtocolName": "func_run-04_task-visualmemory",
  "PulseSequenceDetails": "%SiemensSeq%_ep2d_bold",
  "ReceiveCoilActiveElements": "HEA;HEP",
  "ReceiveCoilName": "Head_32",
  "ReconMatrixPE": 96,
  "RepetitionTime": 1,
  "SAR": 0.0471199,
  "ScanOptions": "FS",
  "ScanningSequence": "EP",
  "SequenceName": "_epfid2d1_96",
  "SequenceVariant": "SK",
  "SeriesDescription": "func_run-04_task-visualmemory",
  "SeriesNumber": 29,
  "ShimSetting": [4146, -7755, -7431, 852, -97, -440, 341, 78],
  "SliceThickness": 2.5,
  "SliceTiming": [0.735, 0, 0.49, 0.0825, 0.57, 0.1625, 0.6525, 0.3275, 0.815, 0.4075, 0.8975, 0.245, 0.735, 0, 0.49, 0.0825, 0.57, 0.1625, 0.6525, 0.3275, 0.815, 0.4075, 0.8975, 0.245, 0.735, 0, 0.49, 0.0825, 0.57, 0.1625, 0.6525, 0.3275, 0.815, 0.4075, 0.8975, 0.245, 0.735, 0, 0.49, 0.0825, 0.57, 0.1625, 0.6525, 0.3275, 0.815, 0.4075, 0.8975, 0.245],
  "SoftwareVersions": "syngo_MR_E11",
  "SpacingBetweenSlices": 2.5,
  "StationName": "AWP66112",
  "TotalReadoutTime": 0.0522511,
  "TxRefAmp": 238.973,
  "dcmmeta_affine": [
    [-2.4985618591308594, -0.04579360783100128, -0.07135855406522751, 123.42772674560547],
    [-0.04661831632256508, 2.4994046688079834, 0.028335563838481903, -104.53662872314453],
    [-0.07082252949476242, -0.02964990772306919, 2.4988207817077637, -84.08248901367188],
    [0.0, 0.0, 0.0, 1.0]
],
  "dcmmeta_reorient_transform": [
    [0.0, -1.0, 0.0, 95.0],
    [1.0, 0.0, 0.0, 0.0],
    [0.0, 0.0, 1.0, 0.0],
    [0.0, 0.0, 0.0, 1.0]
],
  "dcmmeta_shape": [96, 96, 48, 288],
  "dcmmeta_slice_dim": 2,
  "dcmmeta_version": 0.6,
  "global": {
    "const": {
      "AccessionNumber": "A001308",
      "AcquisitionMatrix": [96, 0, 0, 96],
      "AngioFlag": "N",
      "BitsAllocated": 16,
      "BitsStored": 12,
      "BodyPartExamined": "BRAIN",
      "Columns": 672,
      "EchoNumbers": 1,
      "EchoTime": 33.0,
      "EchoTrainLength": 96,
      "FlipAngle": 59.0,
      "HighBit": 11,
      "ImageOrientationPatient": [0.99942470670223, 0.01864732660518, -0.0283290106365, -0.0183174431491, 0.99976187792586, 0.01185996301216],
      "ImagePositionPatient": [-825.47456020311, -866.16144184331, -75.041518794415],
      "ImageType": [
        "ORIGINAL",
        "PRIMARY",
        "FMRI",
        "NONE",
        "ND",
        "NORM",
        "MOSAIC"
],
      "ImagedNucleus": "1H",
      "ImagingFrequency": 123.252367,
      "InPlanePhaseEncodingDirection": "COL",
      "MRAcquisitionType": "2D",
      "MagneticFieldStrength": 3.0,
      "Manufacturer": "SIEMENS",
      "ManufacturerModelName": "Prisma",
      "Modality": "MR",
      "NumberOfAverages": 1.0,
      "NumberOfPhaseEncodingSteps": 96,
      "PercentPhaseFieldOfView": 100.0,
      "PercentSampling": 100.0,
      "PerformedProcedureStepStartTime": "111704.481000",
      "PhotometricInterpretation": "MONOCHROME2",
      "PixelBandwidth": 2365.0,
      "PixelRepresentation": 0,
      "PixelSpacing": [2.5, 2.5],
      "PositionReferenceIndicator": "",
      "ProtocolName": "func_run-04_task-visualmemory",
      "RepetitionTime": 1000.0,
      "Rows": 672,
      "SAR": 0.0471198857278,
      "SamplesPerPixel": 1,
      "ScanOptions": "FS",
      "ScanningSequence": "EP",
      "SequenceName": "*epfid2d1_96",
      "SequenceVariant": "SK",
      "SeriesDescription": "func_run-04_task-visualmemory",
      "SeriesNumber": 29,
      "SeriesTime": "114023.425000",
      "SliceLocation": -88.750720793228,
      "SliceThickness": 2.5,
      "SmallestImagePixelValue": 0,
      "SoftwareVersions": "syngo MR E11",
      "SpacingBetweenSlices": 2.5000000392414,
      "SpecificCharacterSet": "ISO_IR 100",
      "StudyID": "3",
      "StudyTime": "111704.427000",
      "TransmitCoilName": "Body",
      "VariableFlipAngleFlag": "N",
      "WindowCenterWidthExplanation": "Algo1",
      "dBdt": 0.0},
    "slices": {}
  },
  "time": {
    "samples": {
      "AcquisitionNumber": [1, 2, 3, 4, 5, 6, 7, 8, 9, 10, 11, 12, 13, 14, 15, 16, 17, 18, 19, 20, 21, 22, 23, 24, 25, 26, 27, 28, 29, 30, 31, 32, 33, 34, 35, 36, 37, 38, 39, 40, 41, 42, 43, 44, 45, 46, 47, 48, 49, 50, 51, 52, 53, 54, 55, 56, 57, 58, 59, 60, 61, 62, 63, 64, 65, 66, 67, 68, 69, 70, 71, 72, 73, 74, 75, 76, 77, 78, 79, 80, 81, 82, 83, 84, 85, 86, 87, 88, 89, 90, 91, 92, 93, 94, 95, 96, 97, 98, 99, 100, 101, 102, 103, 104, 105, 106, 107, 108, 109, 110, 111, 112, 113, 114, 115, 116, 117, 118, 119, 120, 121, 122, 123, 124, 125, 126, 127, 128, 129, 130, 131, 132, 133, 134, 135, 136, 137, 138, 139, 140, 141, 142, 143, 144, 145, 146, 147, 148, 149, 150, 151, 152, 153, 154, 155, 156, 157, 158, 159, 160, 161, 162, 163, 164, 165, 166, 167, 168, 169, 170, 171, 172, 173, 174, 175, 176, 177, 178, 179, 180, 181, 182, 183, 184, 185, 186, 187, 188, 189, 190, 191, 192, 193, 194, 195, 196, 197, 198, 199, 200, 201, 202, 203, 204, 205, 206, 207, 208, 209, 210, 211, 212, 213, 214, 215, 216, 217, 218, 219, 220, 221, 222, 223, 224, 225, 226, 227, 228, 229, 230, 231, 232, 233, 234, 235, 236, 237, 238, 239, 240, 241, 242, 243, 244, 245, 246, 247, 248, 249, 250, 251, 252, 253, 254, 255, 256, 257, 258, 259, 260, 261, 262, 263, 264, 265, 266, 267, 268, 269, 270, 271, 272, 273, 274, 275, 276, 277, 278, 279, 280, 281, 282, 283, 284, 285, 286, 287, 288],
      "AcquisitionTime": ["114022.195000", "114023.195000", "114024.195000", "114025.195000", "114026.195000", "114027.195000", "114028.195000", "114029.195000", "114030.195000", "114031.195000", "114032.195000", "114033.195000", "114034.195000", "114035.195000", "114036.195000", "114037.195000", "114038.195000", "114039.195000", "114040.195000", "114041.195000", "114042.195000", "114043.195000", "114044.195000", "114045.195000", "114046.195000", "114047.195000", "114048.195000", "114049.195000", "114050.195000", "114051.195000", "114052.195000", "114053.195000", "114054.195000", "114055.195000", "114056.195000", "114057.195000", "114058.195000", "114059.195000", "114100.195000", "114101.195000", "114102.195000", "114103.195000", "114104.195000", "114105.195000", "114106.195000", "114107.195000", "114108.195000", "114109.195000", "114110.195000", "114111.195000", "114112.195000", "114113.195000", "114114.195000", "114115.195000", "114116.195000", "114117.195000", "114118.195000", "114119.195000", "114120.195000", "114121.195000", "114122.195000", "114123.195000", "114124.195000", "114125.195000", "114126.195000", "114127.195000", "114128.195000", "114129.195000", "114130.195000", "114131.195000", "114132.195000", "114133.195000", "114134.195000", "114135.195000", "114136.195000", "114137.195000", "114138.195000", "114139.195000", "114140.195000", "114141.195000", "114142.195000", "114143.195000", "114144.195000", "114145.195000", "114146.195000", "114147.195000", "114148.195000", "114149.195000", "114150.195000", "114151.195000", "114152.195000", "114153.195000", "114154.195000", "114155.195000", "114156.195000", "114157.195000", "114158.195000", "114159.195000", "114200.195000", "114201.195000", "114202.195000", "114203.195000", "114204.195000", "114205.195000", "114206.195000", "114207.195000", "114208.195000", "114209.195000", "114210.195000", "114211.195000", "114212.195000", "114213.195000", "114214.195000", "114215.195000", "114216.195000", "114217.195000", "114218.195000", "114219.195000", "114220.195000", "114221.195000", "114222.195000", "114223.195000", "114224.195000", "114225.195000", "114226.195000", "114227.195000", "114228.195000", "114229.195000", "114230.195000", "114231.195000", "114232.195000", "114233.195000", "114234.195000", "114235.195000", "114236.195000", "114237.195000", "114238.195000", "114239.195000", "114240.195000", "114241.195000", "114242.195000", "114243.195000", "114244.195000", "114245.195000", "114246.195000", "114247.195000", "114248.195000", "114249.195000", "114250.195000", "114251.195000", "114252.195000", "114253.195000", "114254.195000", "114255.195000", "114256.195000", "114257.195000", "114258.195000", "114259.195000", "114300.195000", "114301.195000", "114302.195000", "114303.195000", "114304.195000", "114305.195000", "114306.195000", "114307.195000", "114308.195000", "114309.195000", "114310.195000", "114311.195000", "114312.195000", "114313.195000", "114314.195000", "114315.195000", "114316.195000", "114317.195000", "114318.195000", "114319.195000", "114320.195000", "114321.195000", "114322.195000", "114323.195000", "114324.195000", "114325.195000", "114326.195000", "114327.195000", "114328.195000", "114329.195000", "114330.195000", "114331.195000", "114332.195000", "114333.195000", "114334.195000", "114335.195000", "114336.195000", "114337.195000", "114338.195000", "114339.195000", "114340.195000", "114341.195000", "114342.195000", "114343.195000", "114344.195000", "114345.195000", "114346.195000", "114347.195000", "114348.195000", "114349.195000", "114350.195000", "114351.195000", "114352.195000", "114353.195000", "114354.195000", "114355.195000", "114356.195000", "114357.195000", "114358.195000", "114359.195000", "114400.195000", "114401.195000", "114402.195000", "114403.195000", "114404.195000", "114405.195000", "114406.195000", "114407.195000", "114408.195000", "114409.195000", "114410.195000", "114411.195000", "114412.195000", "114413.195000", "114414.195000", "114415.195000", "114416.195000", "114417.195000", "114418.195000", "114419.195000", "114420.195000", "114421.195000", "114422.195000", "114423.195000", "114424.195000", "114425.195000", "114426.195000", "114427.195000", "114428.195000", "114429.195000", "114430.195000", "114431.195000", "114432.195000", "114433.195000", "114434.195000", "114435.195000", "114436.195000", "114437.195000", "114438.195000", "114439.195000", "114440.195000", "114441.195000", "114442.195000", "114443.195000", "114444.195000", "114445.195000", "114446.195000", "114447.195000", "114448.195000", "114449.195000", "114450.195000", "114451.195000", "114452.195000", "114453.195000", "114454.195000", "114455.195000", "114456.195000", "114457.195000", "114458.195000", "114459.195000", "114500.195000", "114501.195000", "114502.195000", "114503.195000", "114504.195000", "114505.195000", "114506.195000", "114507.195000", "114508.195000", "114509.195000"],
      "ContentTime": ["114023.429000", "114024.246000", "114025.254000", "114026.275000", "114027.261000", "114028.272000", "114029.292000", "114030.230000", "114031.246000", "114032.270000", "114033.256000", "114034.265000", "114035.234000", "114036.235000", "114037.253000", "114038.288000", "114039.256000", "114040.218000", "114041.254000", "114042.233000", "114043.255000", "114044.254000", "114045.270000", "114046.302000", "114047.306000", "114048.275000", "114049.228000", "114050.248000", "114051.266000", "114052.253000", "114053.298000", "114054.272000", "114055.249000", "114056.250000", "114057.304000", "114058.264000", "114059.256000", "114100.250000", "114101.279000", "114102.304000", "114103.269000", "114104.325000", "114105.240000", "114106.253000", "114107.295000", "114108.283000", "114109.271000", "114110.247000", "114111.286000", "114112.253000", "114113.269000", "114114.260000", "114115.238000", "114116.263000", "114117.317000", "114118.264000", "114119.247000", "114120.255000", "114121.236000", "114122.251000", "114123.249000", "114124.250000", "114125.258000", "114126.268000", "114127.288000", "114128.222000", "114129.233000", "114130.257000", "114131.253000", "114132.257000", "114133.242000", "114134.242000", "114135.280000", "114136.283000", "114137.266000", "114138.292000", "114139.272000", "114140.261000", "114141.271000", "114142.251000", "114143.301000", "114144.253000", "114145.270000", "114146.225000", "114147.256000", "114148.235000", "114149.257000", "114150.247000", "114151.290000", "114152.265000", "114153.261000", "114154.272000", "114155.269000", "114156.225000", "114157.241000", "114158.260000", "114159.261000", "114200.243000", "114201.268000", "114202.253000", "114203.265000", "114204.263000", "114205.304000", "114206.275000", "114207.262000", "114208.281000", "114209.271000", "114210.257000", "114211.241000", "114212.252000", "114213.235000", "114214.279000", "114215.282000", "114216.297000", "114217.278000", "114218.263000", "114219.271000", "114220.238000", "114221.264000", "114222.242000", "114223.263000", "114224.258000", "114225.270000", "114226.254000", "114227.241000", "114228.290000", "114229.246000", "114230.245000", "114231.262000", "114232.256000", "114233.254000", "114234.257000", "114235.253000", "114236.246000", "114237.252000", "114238.245000", "114239.271000", "114240.251000", "114241.252000", "114242.263000", "114243.225000", "114244.256000", "114245.251000", "114246.239000", "114247.278000", "114248.256000", "114249.290000", "114250.265000", "114251.252000", "114252.259000", "114253.220000", "114254.284000", "114255.233000", "114256.306000", "114257.275000", "114258.265000", "114259.250000", "114300.259000", "114301.256000", "114302.280000", "114303.271000", "114304.246000", "114305.276000", "114306.275000", "114307.227000", "114308.255000", "114309.255000", "114310.252000", "114311.254000", "114312.286000", "114313.252000", "114314.269000", "114315.272000", "114316.245000", "114317.319000", "114318.279000", "114319.269000", "114320.250000", "114321.232000", "114322.303000", "114323.261000", "114324.261000", "114325.282000", "114326.285000", "114327.267000", "114328.265000", "114329.248000", "114330.298000", "114331.274000", "114332.224000", "114333.258000", "114334.290000", "114335.267000", "114336.263000", "114337.265000", "114338.299000", "114339.280000", "114340.355000", "114341.250000", "114342.254000", "114343.250000", "114344.257000", "114345.284000", "114346.282000", "114347.265000", "114348.264000", "114349.248000", "114350.254000", "114351.250000", "114352.258000", "114353.253000", "114354.246000", "114355.239000", "114356.270000", "114357.260000", "114358.238000", "114359.274000", "114400.249000", "114401.263000", "114402.248000", "114403.252000", "114404.246000", "114405.270000", "114406.264000", "114407.227000", "114408.276000", "114409.266000", "114410.256000", "114411.259000", "114412.265000", "114413.237000", "114414.263000", "114415.285000", "114416.265000", "114417.324000", "114418.301000", "114419.309000", "114420.274000", "114421.220000", "114422.279000", "114423.283000", "114424.263000", "114425.267000", "114426.254000", "114427.250000", "114428.268000", "114429.259000", "114430.255000", "114431.249000", "114432.269000", "114433.250000", "114434.260000", "114435.255000", "114436.265000", "114437.260000", "114438.263000", "114439.248000", "114440.245000", "114441.263000", "114442.264000", "114443.274000", "114444.241000", "114445.253000", "114446.292000", "114447.254000", "114448.263000", "114449.257000", "114450.267000", "114451.264000", "114452.256000", "114453.271000", "114454.283000", "114455.259000", "114456.248000", "114457.274000", "114458.266000", "114459.256000", "114500.313000", "114501.266000", "114502.257000", "114503.271000", "114504.246000", "114505.272000", "114506.271000", "114507.242000", "114508.248000", "114509.271000", "114510.275000"],
      "InstanceCreationTime": ["114023.429000", "114024.246000", "114025.254000", "114026.275000", "114027.261000", "114028.272000", "114029.292000", "114030.230000", "114031.246000", "114032.270000", "114033.256000", "114034.265000", "114035.234000", "114036.235000", "114037.253000", "114038.288000", "114039.256000", "114040.218000", "114041.254000", "114042.233000", "114043.255000", "114044.254000", "114045.270000", "114046.302000", "114047.306000", "114048.275000", "114049.228000", "114050.248000", "114051.266000", "114052.253000", "114053.298000", "114054.272000", "114055.249000", "114056.250000", "114057.304000", "114058.264000", "114059.256000", "114100.250000", "114101.279000", "114102.304000", "114103.269000", "114104.325000", "114105.240000", "114106.253000", "114107.295000", "114108.283000", "114109.271000", "114110.247000", "114111.286000", "114112.253000", "114113.269000", "114114.260000", "114115.238000", "114116.263000", "114117.317000", "114118.264000", "114119.247000", "114120.255000", "114121.236000", "114122.251000", "114123.249000", "114124.250000", "114125.258000", "114126.268000", "114127.288000", "114128.222000", "114129.233000", "114130.257000", "114131.253000", "114132.257000", "114133.242000", "114134.242000", "114135.280000", "114136.283000", "114137.266000", "114138.292000", "114139.272000", "114140.261000", "114141.271000", "114142.251000", "114143.301000", "114144.253000", "114145.270000", "114146.225000", "114147.256000", "114148.235000", "114149.257000", "114150.247000", "114151.290000", "114152.265000", "114153.261000", "114154.272000", "114155.269000", "114156.225000", "114157.241000", "114158.260000", "114159.261000", "114200.243000", "114201.268000", "114202.253000", "114203.265000", "114204.263000", "114205.304000", "114206.275000", "114207.262000", "114208.281000", "114209.271000", "114210.257000", "114211.241000", "114212.252000", "114213.235000", "114214.279000", "114215.282000", "114216.297000", "114217.278000", "114218.263000", "114219.271000", "114220.238000", "114221.264000", "114222.242000", "114223.263000", "114224.258000", "114225.270000", "114226.254000", "114227.241000", "114228.290000", "114229.246000", "114230.245000", "114231.262000", "114232.256000", "114233.254000", "114234.257000", "114235.253000", "114236.246000", "114237.252000", "114238.245000", "114239.271000", "114240.251000", "114241.252000", "114242.263000", "114243.225000", "114244.256000", "114245.251000", "114246.239000", "114247.278000", "114248.256000", "114249.290000", "114250.265000", "114251.252000", "114252.259000", "114253.220000", "114254.284000", "114255.233000", "114256.306000", "114257.275000", "114258.265000", "114259.250000", "114300.259000", "114301.256000", "114302.280000", "114303.271000", "114304.246000", "114305.276000", "114306.275000", "114307.227000", "114308.255000", "114309.255000", "114310.252000", "114311.254000", "114312.286000", "114313.252000", "114314.269000", "114315.272000", "114316.245000", "114317.319000", "114318.279000", "114319.269000", "114320.250000", "114321.232000", "114322.303000", "114323.261000", "114324.261000", "114325.282000", "114326.285000", "114327.267000", "114328.265000", "114329.248000", "114330.298000", "114331.274000", "114332.224000", "114333.258000", "114334.290000", "114335.267000", "114336.263000", "114337.265000", "114338.299000", "114339.280000", "114340.355000", "114341.250000", "114342.254000", "114343.250000", "114344.257000", "114345.284000", "114346.282000", "114347.265000", "114348.264000", "114349.248000", "114350.254000", "114351.250000", "114352.258000", "114353.253000", "114354.246000", "114355.239000", "114356.270000", "114357.260000", "114358.238000", "114359.274000", "114400.249000", "114401.263000", "114402.248000", "114403.252000", "114404.246000", "114405.270000", "114406.264000", "114407.227000", "114408.276000", "114409.266000", "114410.256000", "114411.259000", "114412.265000", "114413.237000", "114414.263000", "114415.285000", "114416.265000", "114417.324000", "114418.301000", "114419.309000", "114420.274000", "114421.220000", "114422.279000", "114423.283000", "114424.263000", "114425.267000", "114426.254000", "114427.250000", "114428.268000", "114429.259000", "114430.255000", "114431.249000", "114432.269000", "114433.250000", "114434.260000", "114435.255000", "114436.265000", "114437.260000", "114438.263000", "114439.248000", "114440.245000", "114441.263000", "114442.264000", "114443.274000", "114444.241000", "114445.253000", "114446.292000", "114447.254000", "114448.263000", "114449.257000", "114450.267000", "114451.264000", "114452.256000", "114453.271000", "114454.283000", "114455.259000", "114456.248000", "114457.274000", "114458.266000", "114459.256000", "114500.313000", "114501.266000", "114502.257000", "114503.271000", "114504.246000", "114505.272000", "114506.271000", "114507.242000", "114508.248000", "114509.271000", "114510.275000"],
      "InstanceNumber": [1, 2, 3, 4, 5, 6, 7, 8, 9, 10, 11, 12, 13, 14, 15, 16, 17, 18, 19, 20, 21, 22, 23, 24, 25, 26, 27, 28, 29, 30, 31, 32, 33, 34, 35, 36, 37, 38, 39, 40, 41, 42, 43, 44, 45, 46, 47, 48, 49, 50, 51, 52, 53, 54, 55, 56, 57, 58, 59, 60, 61, 62, 63, 64, 65, 66, 67, 68, 69, 70, 71, 72, 73, 74, 75, 76, 77, 78, 79, 80, 81, 82, 83, 84, 85, 86, 87, 88, 89, 90, 91, 92, 93, 94, 95, 96, 97, 98, 99, 100, 101, 102, 103, 104, 105, 106, 107, 108, 109, 110, 111, 112, 113, 114, 115, 116, 117, 118, 119, 120, 121, 122, 123, 124, 125, 126, 127, 128, 129, 130, 131, 132, 133, 134, 135, 136, 137, 138, 139, 140, 141, 142, 143, 144, 145, 146, 147, 148, 149, 150, 151, 152, 153, 154, 155, 156, 157, 158, 159, 160, 161, 162, 163, 164, 165, 166, 167, 168, 169, 170, 171, 172, 173, 174, 175, 176, 177, 178, 179, 180, 181, 182, 183, 184, 185, 186, 187, 188, 189, 190, 191, 192, 193, 194, 195, 196, 197, 198, 199, 200, 201, 202, 203, 204, 205, 206, 207, 208, 209, 210, 211, 212, 213, 214, 215, 216, 217, 218, 219, 220, 221, 222, 223, 224, 225, 226, 227, 228, 229, 230, 231, 232, 233, 234, 235, 236, 237, 238, 239, 240, 241, 242, 243, 244, 245, 246, 247, 248, 249, 250, 251, 252, 253, 254, 255, 256, 257, 258, 259, 260, 261, 262, 263, 264, 265, 266, 267, 268, 269, 270, 271, 272, 273, 274, 275, 276, 277, 278, 279, 280, 281, 282, 283, 284, 285, 286, 287, 288],
      "LargestImagePixelValue": [661, 807, 658, 614, 616, 622, 659, 668, 862, 602, 638, 618, 637, 685, 634, 838, 633, 628, 613, 623, 701, 646, 664, 666, 647, 644, 658, 900, 628, 624, 610, 597, 799, 727, 852, 661, 619, 602, 641, 700, 625, 618, 613, 617, 656, 656, 668, 625, 631, 606, 656, 768, 729, 623, 628, 644, 639, 640, 793, 633, 631, 610, 630, 706, 665, 832, 651, 645, 613, 663, 820, 647, 619, 599, 653, 713, 645, 627, 647, 602, 615, 632, 775, 640, 607, 644, 837, 879, 645, 626, 595, 612, 640, 665, 642, 656, 641, 658, 636, 882, 702, 629, 630, 628, 631, 639, 668, 693, 638, 636, 627, 610, 600, 637, 665, 658, 663, 860, 676, 606, 643, 619, 608, 608, 632, 650, 652, 663, 688, 714, 656, 620, 640, 662, 616, 606, 630, 643, 618, 663, 861, 628, 675, 627, 599, 608, 604, 692, 639, 650, 687, 650, 934, 623, 647, 606, 602, 606, 677, 644, 658, 880, 615, 608, 639, 603, 599, 633, 674, 728, 758, 609, 658, 607, 600, 631, 705, 646, 681, 621, 665, 615, 631, 734, 660, 636, 663, 898, 675, 613, 635, 710, 655, 662, 641, 636, 597, 597, 603, 670, 678, 636, 898, 663, 646, 615, 622, 608, 602, 617, 622, 615, 641, 622, 745, 636, 618, 748, 676, 642, 633, 614, 666, 614, 610, 625, 642, 645, 638, 680, 645, 644, 890, 794, 631, 624, 603, 676, 658, 751, 600, 648, 637, 651, 675, 620, 720, 662, 600, 612, 841, 802, 645, 612, 681, 642, 629, 775, 632, 618, 625, 653, 645, 652, 639, 635, 665, 609, 616, 626, 609, 643, 652, 638, 632, 615, 634, 608, 690, 621, 615, 635, 637, 669, 638, 604, 604, 642],
      "WindowCenter": [322.0, 324.0, 321.0, 320.0, 321.0, 320.0, 321.0, 321.0, 323.0, 320.0, 321.0, 320.0, 320.0, 321.0, 321.0, 323.0, 321.0, 320.0, 321.0, 321.0, 321.0, 321.0, 321.0, 321.0, 320.0, 320.0, 321.0, 323.0, 320.0, 320.0, 321.0, 320.0, 322.0, 320.0, 322.0, 320.0, 318.0, 319.0, 319.0, 320.0, 319.0, 319.0, 319.0, 319.0, 320.0, 320.0, 321.0, 320.0, 320.0, 320.0, 321.0, 322.0, 321.0, 320.0, 320.0, 320.0, 321.0, 321.0, 323.0, 321.0, 321.0, 321.0, 321.0, 321.0, 321.0, 323.0, 321.0, 320.0, 320.0, 321.0, 322.0, 320.0, 320.0, 319.0, 321.0, 321.0, 320.0, 320.0, 321.0, 320.0, 321.0, 321.0, 323.0, 321.0, 320.0, 320.0, 322.0, 322.0, 320.0, 319.0, 319.0, 320.0, 321.0, 321.0, 321.0, 321.0, 321.0, 322.0, 322.0, 324.0, 321.0, 320.0, 320.0, 320.0, 320.0, 320.0, 321.0, 321.0, 321.0, 321.0, 321.0, 320.0, 320.0, 321.0, 321.0, 321.0, 321.0, 323.0, 321.0, 320.0, 321.0, 320.0, 320.0, 320.0, 321.0, 321.0, 321.0, 321.0, 321.0, 321.0, 321.0, 321.0, 321.0, 321.0, 320.0, 320.0, 321.0, 321.0, 321.0, 322.0, 323.0, 320.0, 321.0, 320.0, 320.0, 320.0, 321.0, 322.0, 321.0, 321.0, 322.0, 321.0, 324.0, 320.0, 320.0, 319.0, 319.0, 320.0, 321.0, 321.0, 321.0, 323.0, 320.0, 320.0, 321.0, 320.0, 320.0, 320.0, 321.0, 321.0, 321.0, 320.0, 321.0, 320.0, 319.0, 320.0, 321.0, 320.0, 321.0, 320.0, 321.0, 320.0, 320.0, 321.0, 320.0, 320.0, 321.0, 324.0, 321.0, 321.0, 320.0, 321.0, 320.0, 320.0, 320.0, 320.0, 319.0, 320.0, 320.0, 321.0, 321.0, 320.0, 323.0, 321.0, 320.0, 320.0, 320.0, 319.0, 320.0, 320.0, 320.0, 321.0, 322.0, 320.0, 321.0, 320.0, 320.0, 321.0, 321.0, 320.0, 321.0, 321.0, 321.0, 321.0, 321.0, 320.0, 320.0, 320.0, 320.0, 321.0, 321.0, 322.0, 324.0, 322.0, 320.0, 319.0, 319.0, 321.0, 320.0, 321.0, 320.0, 320.0, 321.0, 321.0, 322.0, 322.0, 324.0, 322.0, 322.0, 323.0, 324.0, 323.0, 320.0, 320.0, 321.0, 321.0, 320.0, 322.0, 320.0, 320.0, 321.0, 321.0, 321.0, 321.0, 320.0, 321.0, 321.0, 320.0, 321.0, 321.0, 321.0, 321.0, 321.0, 321.0, 321.0, 321.0, 321.0, 320.0, 321.0, 321.0, 321.0, 321.0, 321.0, 321.0, 322.0, 321.0, 322.0, 322.0],
      "WindowWidth": [698.0, 699.0, 696.0, 694.0, 694.0, 694.0, 695.0, 695.0, 698.0, 694.0, 695.0, 694.0, 693.0, 695.0, 694.0, 698.0, 695.0, 693.0, 694.0, 694.0, 696.0, 694.0, 696.0, 694.0, 693.0, 693.0, 694.0, 698.0, 694.0, 693.0, 695.0, 694.0, 696.0, 694.0, 695.0, 692.0, 690.0, 692.0, 692.0, 694.0, 692.0, 692.0, 692.0, 692.0, 693.0, 693.0, 694.0, 693.0, 694.0, 693.0, 695.0, 696.0, 695.0, 694.0, 694.0, 693.0, 694.0, 695.0, 698.0, 695.0, 695.0, 695.0, 695.0, 695.0, 694.0, 698.0, 695.0, 693.0, 693.0, 695.0, 697.0, 694.0, 693.0, 692.0, 694.0, 694.0, 693.0, 694.0, 694.0, 694.0, 695.0, 696.0, 697.0, 695.0, 694.0, 693.0, 695.0, 696.0, 693.0, 692.0, 692.0, 693.0, 694.0, 695.0, 695.0, 696.0, 696.0, 696.0, 696.0, 700.0, 696.0, 694.0, 693.0, 693.0, 693.0, 693.0, 694.0, 695.0, 694.0, 695.0, 695.0, 694.0, 694.0, 694.0, 694.0, 695.0, 696.0, 698.0, 696.0, 694.0, 695.0, 694.0, 694.0, 694.0, 694.0, 694.0, 694.0, 694.0, 695.0, 695.0, 695.0, 695.0, 695.0, 695.0, 694.0, 693.0, 695.0, 695.0, 695.0, 696.0, 699.0, 694.0, 696.0, 694.0, 694.0, 694.0, 695.0, 696.0, 695.0, 696.0, 696.0, 695.0, 699.0, 694.0, 694.0, 693.0, 692.0, 694.0, 696.0, 695.0, 696.0, 698.0, 694.0, 694.0, 695.0, 694.0, 694.0, 693.0, 695.0, 695.0, 695.0, 693.0, 694.0, 693.0, 692.0, 694.0, 695.0, 693.0, 694.0, 694.0, 695.0, 694.0, 694.0, 695.0, 693.0, 693.0, 696.0, 699.0, 694.0, 695.0, 694.0, 694.0, 693.0, 693.0, 693.0, 693.0, 693.0, 693.0, 694.0, 696.0, 695.0, 694.0, 698.0, 695.0, 693.0, 693.0, 693.0, 692.0, 693.0, 694.0, 694.0, 695.0, 696.0, 694.0, 695.0, 693.0, 693.0, 695.0, 694.0, 694.0, 695.0, 695.0, 695.0, 695.0, 695.0, 694.0, 693.0, 693.0, 693.0, 695.0, 695.0, 696.0, 699.0, 696.0, 693.0, 693.0, 692.0, 694.0, 693.0, 695.0, 693.0, 693.0, 694.0, 696.0, 697.0, 698.0, 700.0, 697.0, 697.0, 698.0, 699.0, 697.0, 693.0, 693.0, 695.0, 694.0, 693.0, 696.0, 693.0, 694.0, 695.0, 695.0, 695.0, 694.0, 694.0, 695.0, 696.0, 694.0, 695.0, 695.0, 695.0, 695.0, 695.0, 695.0, 696.0, 695.0, 695.0, 694.0, 695.0, 695.0, 695.0, 695.0, 695.0, 695.0, 696.0, 696.0, 697.0, 698.0]
    },
    "slices": {}
  }
}