{
  "AcquisitionMatrixPE": 96,
  "AcquisitionNumber": 1,
  "AcquisitionTime": "11:56:4.030000",
  "BandwidthPerPixelPhaseEncode": 18.939,
  "BaseResolution": 96,
  "BodyPartExamined": "BRAIN",
  "ConsistencyInfo": "N4_VE11C_LATEST_20160120",
  "ConversionSoftware": "dcm2niix",
  "ConversionSoftwareVersion": "v1.0.20171215 (OpenJPEG build) GCC6.3.0",
  "DerivedVendorReportedEchoSpacing": 0.000550011,
  "DeviceSerialNumber": "66112",
  "DwellTime": 2.2e-06,
  "EchoTime": 0.033,
  "EchoTrainLength": 96,
  "EffectiveEchoSpacing": 0.000550011,
  "FlipAngle": 59,
  "ImageOrientationPatientDICOM": [0.999425, 0.0186473, -0.028329, -0.0183174, 0.999762, 0.01186],
  "ImageType": [
    "ORIGINAL",
    "PRIMARY",
    "FMRI",
    "NONE",
    "ND",
    "NORM",
    "MOSAIC"
],
  "InPlanePhaseEncodingDirectionDICOM": "COL",
  "InstitutionAddress": "Maynard_3_Hanover_NH_US_03755",
  "InstitutionName": "Dartmouth_College_-_PBS",
  "InstitutionalDepartmentName": "Department",
  "MRAcquisitionType": "2D",
  "MagneticFieldStrength": 3,
  "Manufacturer": "Siemens",
  "ManufacturersModelName": "Prisma",
  "Modality": "MR",
  "MultibandAccelerationFactor": 4,
  "PartialFourier": 1,
  "PatientPosition": "HFS",
  "PercentPhaseFOV": 100,
  "PhaseEncodingDirection": "j-",
  "PhaseEncodingSteps": 96,
  "PhaseResolution": 1,
  "PixelBandwidth": 2365,
  "ProcedureStepDescription": "Gobbini_Matteo_1038_hyperface",
  "ProtocolName": "func_run-07_task-visualmemory",
  "PulseSequenceDetails": "%SiemensSeq%_ep2d_bold",
  "ReceiveCoilActiveElements": "HEA;HEP",
  "ReceiveCoilName": "Head_32",
  "ReconMatrixPE": 96,
  "RepetitionTime": 1,
  "SAR": 0.0471199,
  "ScanOptions": "FS",
  "ScanningSequence": "EP",
  "SequenceName": "_epfid2d1_96",
  "SequenceVariant": "SK",
  "SeriesDescription": "func_run-07_task-visualmemory",
  "SeriesNumber": 50,
  "ShimSetting": [4146, -7755, -7431, 852, -97, -440, 341, 78],
  "SliceThickness": 2.5,
  "SliceTiming": [0.735, 0, 0.49, 0.0825, 0.5725, 0.1625, 0.6525, 0.3275, 0.8175, 0.4075, 0.8975, 0.245, 0.735, 0, 0.49, 0.0825, 0.5725, 0.1625, 0.6525, 0.3275, 0.8175, 0.4075, 0.8975, 0.245, 0.735, 0, 0.49, 0.0825, 0.5725, 0.1625, 0.6525, 0.3275, 0.8175, 0.4075, 0.8975, 0.245, 0.735, 0, 0.49, 0.0825, 0.5725, 0.1625, 0.6525, 0.3275, 0.8175, 0.4075, 0.8975, 0.245],
  "SoftwareVersions": "syngo_MR_E11",
  "SpacingBetweenSlices": 2.5,
  "StationName": "AWP66112",
  "TotalReadoutTime": 0.0522511,
  "TxRefAmp": 238.973,
  "dcmmeta_affine": [
    [-2.4985618591308594, -0.04579360783100128, -0.07135855406522751, 123.42772674560547],
    [-0.04661831632256508, 2.4994046688079834, 0.028335563838481903, -104.53662872314453],
    [-0.07082252949476242, -0.02964990772306919, 2.4988207817077637, -84.08248901367188],
    [0.0, 0.0, 0.0, 1.0]
],
  "dcmmeta_reorient_transform": [
    [0.0, -1.0, 0.0, 95.0],
    [1.0, 0.0, 0.0, 0.0],
    [0.0, 0.0, 1.0, 0.0],
    [0.0, 0.0, 0.0, 1.0]
],
  "dcmmeta_shape": [96, 96, 48, 288],
  "dcmmeta_slice_dim": 2,
  "dcmmeta_version": 0.6,
  "global": {
    "const": {
      "AccessionNumber": "A001308",
      "AcquisitionMatrix": [96, 0, 0, 96],
      "AngioFlag": "N",
      "BitsAllocated": 16,
      "BitsStored": 12,
      "BodyPartExamined": "BRAIN",
      "Columns": 672,
      "EchoNumbers": 1,
      "EchoTime": 33.0,
      "EchoTrainLength": 96,
      "FlipAngle": 59.0,
      "HighBit": 11,
      "ImageOrientationPatient": [0.99942470670223, 0.01864732660518, -0.0283290106365, -0.0183174431491, 0.99976187792586, 0.01185996301216],
      "ImagePositionPatient": [-825.47456020311, -866.16144184331, -75.041518794415],
      "ImageType": [
        "ORIGINAL",
        "PRIMARY",
        "FMRI",
        "NONE",
        "ND",
        "NORM",
        "MOSAIC"
],
      "ImagedNucleus": "1H",
      "ImagingFrequency": 123.252368,
      "InPlanePhaseEncodingDirection": "COL",
      "MRAcquisitionType": "2D",
      "MagneticFieldStrength": 3.0,
      "Manufacturer": "SIEMENS",
      "ManufacturerModelName": "Prisma",
      "Modality": "MR",
      "NumberOfAverages": 1.0,
      "NumberOfPhaseEncodingSteps": 96,
      "PercentPhaseFieldOfView": 100.0,
      "PercentSampling": 100.0,
      "PerformedProcedureStepStartTime": "111704.481000",
      "PhotometricInterpretation": "MONOCHROME2",
      "PixelBandwidth": 2365.0,
      "PixelRepresentation": 0,
      "PixelSpacing": [2.5, 2.5],
      "PositionReferenceIndicator": "",
      "ProtocolName": "func_run-07_task-visualmemory",
      "RepetitionTime": 1000.0,
      "Rows": 672,
      "SAR": 0.0471198857278,
      "SamplesPerPixel": 1,
      "ScanOptions": "FS",
      "ScanningSequence": "EP",
      "SequenceName": "*epfid2d1_96",
      "SequenceVariant": "SK",
      "SeriesDescription": "func_run-07_task-visualmemory",
      "SeriesNumber": 50,
      "SeriesTime": "115604.891000",
      "SliceLocation": -88.750720793228,
      "SliceThickness": 2.5,
      "SmallestImagePixelValue": 0,
      "SoftwareVersions": "syngo MR E11",
      "SpacingBetweenSlices": 2.5000000392414,
      "SpecificCharacterSet": "ISO_IR 100",
      "StudyID": "3",
      "StudyTime": "111704.427000",
      "TransmitCoilName": "Body",
      "VariableFlipAngleFlag": "N",
      "WindowCenterWidthExplanation": "Algo1",
      "dBdt": 0.0},
    "slices": {}
  },
  "time": {
    "samples": {
      "AcquisitionNumber": [1, 2, 3, 4, 5, 6, 7, 8, 9, 10, 11, 12, 13, 14, 15, 16, 17, 18, 19, 20, 21, 22, 23, 24, 25, 26, 27, 28, 29, 30, 31, 32, 33, 34, 35, 36, 37, 38, 39, 40, 41, 42, 43, 44, 45, 46, 47, 48, 49, 50, 51, 52, 53, 54, 55, 56, 57, 58, 59, 60, 61, 62, 63, 64, 65, 66, 67, 68, 69, 70, 71, 72, 73, 74, 75, 76, 77, 78, 79, 80, 81, 82, 83, 84, 85, 86, 87, 88, 89, 90, 91, 92, 93, 94, 95, 96, 97, 98, 99, 100, 101, 102, 103, 104, 105, 106, 107, 108, 109, 110, 111, 112, 113, 114, 115, 116, 117, 118, 119, 120, 121, 122, 123, 124, 125, 126, 127, 128, 129, 130, 131, 132, 133, 134, 135, 136, 137, 138, 139, 140, 141, 142, 143, 144, 145, 146, 147, 148, 149, 150, 151, 152, 153, 154, 155, 156, 157, 158, 159, 160, 161, 162, 163, 164, 165, 166, 167, 168, 169, 170, 171, 172, 173, 174, 175, 176, 177, 178, 179, 180, 181, 182, 183, 184, 185, 186, 187, 188, 189, 190, 191, 192, 193, 194, 195, 196, 197, 198, 199, 200, 201, 202, 203, 204, 205, 206, 207, 208, 209, 210, 211, 212, 213, 214, 215, 216, 217, 218, 219, 220, 221, 222, 223, 224, 225, 226, 227, 228, 229, 230, 231, 232, 233, 234, 235, 236, 237, 238, 239, 240, 241, 242, 243, 244, 245, 246, 247, 248, 249, 250, 251, 252, 253, 254, 255, 256, 257, 258, 259, 260, 261, 262, 263, 264, 265, 266, 267, 268, 269, 270, 271, 272, 273, 274, 275, 276, 277, 278, 279, 280, 281, 282, 283, 284, 285, 286, 287, 288],
      "AcquisitionTime": ["115604.030000", "115605.030000", "115606.030000", "115607.030000", "115608.030000", "115609.030000", "115610.030000", "115611.030000", "115612.030000", "115613.030000", "115614.030000", "115615.030000", "115616.030000", "115617.030000", "115618.030000", "115619.030000", "115620.030000", "115621.030000", "115622.030000", "115623.030000", "115624.030000", "115625.030000", "115626.030000", "115627.030000", "115628.030000", "115629.030000", "115630.030000", "115631.030000", "115632.030000", "115633.030000", "115634.030000", "115635.030000", "115636.030000", "115637.030000", "115638.030000", "115639.030000", "115640.030000", "115641.030000", "115642.030000", "115643.030000", "115644.030000", "115645.030000", "115646.030000", "115647.030000", "115648.030000", "115649.030000", "115650.030000", "115651.030000", "115652.030000", "115653.030000", "115654.030000", "115655.030000", "115656.030000", "115657.030000", "115658.030000", "115659.030000", "115700.030000", "115701.030000", "115702.030000", "115703.030000", "115704.030000", "115705.030000", "115706.030000", "115707.030000", "115708.030000", "115709.030000", "115710.030000", "115711.030000", "115712.030000", "115713.030000", "115714.030000", "115715.030000", "115716.030000", "115717.030000", "115718.030000", "115719.030000", "115720.030000", "115721.030000", "115722.030000", "115723.030000", "115724.030000", "115725.030000", "115726.030000", "115727.030000", "115728.030000", "115729.030000", "115730.030000", "115731.030000", "115732.030000", "115733.030000", "115734.030000", "115735.030000", "115736.030000", "115737.030000", "115738.030000", "115739.030000", "115740.030000", "115741.030000", "115742.030000", "115743.030000", "115744.030000", "115745.030000", "115746.030000", "115747.030000", "115748.030000", "115749.030000", "115750.030000", "115751.030000", "115752.030000", "115753.030000", "115754.030000", "115755.030000", "115756.030000", "115757.030000", "115758.030000", "115759.030000", "115800.030000", "115801.030000", "115802.030000", "115803.030000", "115804.030000", "115805.030000", "115806.030000", "115807.030000", "115808.030000", "115809.030000", "115810.030000", "115811.030000", "115812.030000", "115813.030000", "115814.030000", "115815.030000", "115816.030000", "115817.030000", "115818.030000", "115819.030000", "115820.030000", "115821.030000", "115822.030000", "115823.030000", "115824.030000", "115825.030000", "115826.030000", "115827.030000", "115828.030000", "115829.030000", "115830.030000", "115831.030000", "115832.030000", "115833.030000", "115834.030000", "115835.030000", "115836.030000", "115837.030000", "115838.030000", "115839.030000", "115840.030000", "115841.030000", "115842.030000", "115843.030000", "115844.030000", "115845.030000", "115846.030000", "115847.030000", "115848.030000", "115849.030000", "115850.030000", "115851.030000", "115852.030000", "115853.030000", "115854.030000", "115855.030000", "115856.030000", "115857.030000", "115858.030000", "115859.030000", "115900.030000", "115901.030000", "115902.030000", "115903.030000", "115904.030000", "115905.030000", "115906.030000", "115907.030000", "115908.030000", "115909.030000", "115910.030000", "115911.030000", "115912.030000", "115913.030000", "115914.030000", "115915.030000", "115916.030000", "115917.030000", "115918.030000", "115919.030000", "115920.030000", "115921.030000", "115922.030000", "115923.030000", "115924.030000", "115925.030000", "115926.030000", "115927.030000", "115928.030000", "115929.030000", "115930.030000", "115931.030000", "115932.030000", "115933.030000", "115934.030000", "115935.030000", "115936.030000", "115937.030000", "115938.030000", "115939.030000", "115940.030000", "115941.030000", "115942.030000", "115943.030000", "115944.030000", "115945.030000", "115946.030000", "115947.030000", "115948.030000", "115949.030000", "115950.030000", "115951.030000", "115952.030000", "115953.030000", "115954.030000", "115955.030000", "115956.030000", "115957.030000", "115958.030000", "115959.030000", "120000.030000", "120001.030000", "120002.030000", "120003.030000", "120004.030000", "120005.030000", "120006.030000", "120007.030000", "120008.030000", "120009.030000", "120010.030000", "120011.030000", "120012.030000", "120013.030000", "120014.030000", "120015.030000", "120016.030000", "120017.030000", "120018.030000", "120019.030000", "120020.030000", "120021.030000", "120022.030000", "120023.030000", "120024.030000", "120025.030000", "120026.030000", "120027.030000", "120028.030000", "120029.030000", "120030.030000", "120031.030000", "120032.030000", "120033.030000", "120034.030000", "120035.030000", "120036.030000", "120037.030000", "120038.030000", "120039.030000", "120040.030000", "120041.030000", "120042.030000", "120043.030000", "120044.030000", "120045.030000", "120046.030000", "120047.030000", "120048.030000", "120049.030000", "120050.030000", "120051.030000"],
      "ContentTime": ["115604.895000", "115605.707000", "115606.735000", "115607.743000", "115608.699000", "115609.694000", "115610.699000", "115611.703000", "115612.690000", "115613.698000", "115614.707000", "115615.688000", "115616.690000", "115617.706000", "115618.697000", "115619.713000", "115620.706000", "115621.725000", "115622.689000", "115623.678000", "115624.674000", "115625.688000", "115626.683000", "115627.689000", "115628.678000", "115629.715000", "115630.671000", "115631.692000", "115632.675000", "115633.691000", "115634.715000", "115635.684000", "115636.684000", "115637.688000", "115638.677000", "115639.734000", "115640.695000", "115641.710000", "115642.701000", "115643.676000", "115644.654000", "115645.683000", "115646.686000", "115647.707000", "115648.691000", "115649.686000", "115650.680000", "115651.706000", "115652.695000", "115653.693000", "115654.701000", "115655.672000", "115656.688000", "115657.725000", "115658.708000", "115659.685000", "115700.683000", "115701.654000", "115702.672000", "115703.692000", "115704.677000", "115705.652000", "115706.662000", "115707.686000", "115708.686000", "115709.658000", "115710.705000", "115711.690000", "115712.669000", "115713.701000", "115714.715000", "115715.665000", "115716.712000", "115717.716000", "115718.707000", "115719.719000", "115720.708000", "115721.712000", "115722.683000", "115723.663000", "115724.701000", "115725.672000", "115726.703000", "115727.690000", "115728.671000", "115729.704000", "115730.694000", "115731.675000", "115732.701000", "115733.692000", "115734.650000", "115735.695000", "115736.678000", "115737.742000", "115738.689000", "115739.684000", "115740.671000", "115741.708000", "115742.668000", "115743.687000", "115744.758000", "115745.704000", "115746.673000", "115747.680000", "115748.690000", "115749.692000", "115750.669000", "115751.687000", "115752.690000", "115753.709000", "115754.699000", "115755.671000", "115756.702000", "115757.670000", "115758.690000", "115759.708000", "115800.687000", "115801.683000", "115802.701000", "115803.689000", "115804.703000", "115805.673000", "115806.701000", "115807.699000", "115808.682000", "115809.675000", "115810.702000", "115811.687000", "115812.699000", "115813.700000", "115814.700000", "115815.701000", "115816.681000", "115817.712000", "115818.700000", "115819.690000", "115820.670000", "115821.663000", "115822.677000", "115823.702000", "115824.696000", "115825.683000", "115826.692000", "115827.720000", "115828.698000", "115829.689000", "115830.680000", "115831.671000", "115832.688000", "115833.715000", "115834.683000", "115835.683000", "115836.741000", "115837.693000", "115838.684000", "115839.706000", "115840.694000", "115841.715000", "115842.702000", "115843.737000", "115844.718000", "115845.680000", "115846.728000", "115847.721000", "115848.689000", "115849.701000", "115850.704000", "115851.684000", "115852.676000", "115853.754000", "115854.698000", "115855.681000", "115856.676000", "115857.669000", "115858.659000", "115859.684000", "115900.667000", "115901.687000", "115902.651000", "115903.675000", "115904.670000", "115905.693000", "115906.722000", "115907.711000", "115908.717000", "115909.709000", "115910.666000", "115911.658000", "115912.708000", "115913.761000", "115914.722000", "115915.688000", "115916.693000", "115917.684000", "115918.654000", "115919.746000", "115920.698000", "115921.688000", "115922.683000", "115923.679000", "115924.688000", "115925.701000", "115926.698000", "115927.667000", "115928.664000", "115929.708000", "115930.689000", "115931.698000", "115932.703000", "115933.703000", "115934.699000", "115935.714000", "115936.694000", "115937.711000", "115938.691000", "115939.695000", "115940.678000", "115941.684000", "115942.695000", "115943.704000", "115944.698000", "115945.692000", "115946.692000", "115947.697000", "115948.690000", "115949.692000", "115950.665000", "115951.698000", "115952.690000", "115953.687000", "115954.683000", "115955.696000", "115956.692000", "115957.702000", "115958.715000", "115959.672000", "120000.700000", "120001.681000", "120002.702000", "120003.692000", "120004.669000", "120005.665000", "120006.678000", "120007.681000", "120008.692000", "120009.703000", "120010.678000", "120011.667000", "120012.683000", "120013.680000", "120014.728000", "120015.658000", "120016.694000", "120017.694000", "120018.686000", "120019.688000", "120020.655000", "120021.678000", "120022.674000", "120023.668000", "120024.696000", "120025.689000", "120026.685000", "120027.690000", "120028.677000", "120029.689000", "120030.685000", "120031.696000", "120032.687000", "120033.684000", "120034.685000", "120035.703000", "120036.677000", "120037.651000", "120038.699000", "120039.701000", "120040.698000", "120041.655000", "120042.705000", "120043.726000", "120044.707000", "120045.718000", "120046.705000", "120047.696000", "120048.704000", "120049.683000", "120050.696000", "120051.709000"],
      "InstanceCreationTime": ["115604.895000", "115605.707000", "115606.735000", "115607.743000", "115608.699000", "115609.694000", "115610.699000", "115611.703000", "115612.690000", "115613.698000", "115614.707000", "115615.688000", "115616.690000", "115617.706000", "115618.697000", "115619.713000", "115620.706000", "115621.725000", "115622.689000", "115623.678000", "115624.674000", "115625.688000", "115626.683000", "115627.689000", "115628.678000", "115629.715000", "115630.671000", "115631.692000", "115632.675000", "115633.691000", "115634.715000", "115635.684000", "115636.684000", "115637.688000", "115638.677000", "115639.734000", "115640.695000", "115641.710000", "115642.701000", "115643.676000", "115644.654000", "115645.683000", "115646.686000", "115647.707000", "115648.691000", "115649.686000", "115650.680000", "115651.706000", "115652.695000", "115653.693000", "115654.701000", "115655.672000", "115656.688000", "115657.725000", "115658.708000", "115659.685000", "115700.683000", "115701.654000", "115702.672000", "115703.692000", "115704.677000", "115705.652000", "115706.662000", "115707.686000", "115708.686000", "115709.658000", "115710.705000", "115711.690000", "115712.669000", "115713.701000", "115714.715000", "115715.665000", "115716.712000", "115717.716000", "115718.707000", "115719.719000", "115720.708000", "115721.712000", "115722.683000", "115723.663000", "115724.701000", "115725.672000", "115726.703000", "115727.690000", "115728.671000", "115729.704000", "115730.694000", "115731.675000", "115732.701000", "115733.692000", "115734.650000", "115735.695000", "115736.678000", "115737.742000", "115738.689000", "115739.684000", "115740.671000", "115741.708000", "115742.668000", "115743.687000", "115744.758000", "115745.704000", "115746.673000", "115747.680000", "115748.690000", "115749.692000", "115750.669000", "115751.687000", "115752.690000", "115753.709000", "115754.699000", "115755.671000", "115756.702000", "115757.670000", "115758.690000", "115759.708000", "115800.687000", "115801.683000", "115802.701000", "115803.689000", "115804.703000", "115805.673000", "115806.701000", "115807.699000", "115808.682000", "115809.675000", "115810.702000", "115811.687000", "115812.699000", "115813.700000", "115814.700000", "115815.701000", "115816.681000", "115817.712000", "115818.700000", "115819.690000", "115820.670000", "115821.663000", "115822.677000", "115823.702000", "115824.696000", "115825.683000", "115826.692000", "115827.720000", "115828.698000", "115829.689000", "115830.680000", "115831.671000", "115832.688000", "115833.715000", "115834.683000", "115835.683000", "115836.741000", "115837.693000", "115838.684000", "115839.706000", "115840.694000", "115841.715000", "115842.702000", "115843.737000", "115844.718000", "115845.680000", "115846.728000", "115847.721000", "115848.689000", "115849.701000", "115850.704000", "115851.684000", "115852.676000", "115853.754000", "115854.698000", "115855.681000", "115856.676000", "115857.669000", "115858.659000", "115859.684000", "115900.667000", "115901.687000", "115902.651000", "115903.675000", "115904.670000", "115905.693000", "115906.722000", "115907.711000", "115908.717000", "115909.709000", "115910.666000", "115911.658000", "115912.708000", "115913.761000", "115914.722000", "115915.688000", "115916.693000", "115917.684000", "115918.654000", "115919.746000", "115920.698000", "115921.688000", "115922.683000", "115923.679000", "115924.688000", "115925.701000", "115926.698000", "115927.667000", "115928.664000", "115929.708000", "115930.689000", "115931.698000", "115932.703000", "115933.703000", "115934.699000", "115935.714000", "115936.694000", "115937.711000", "115938.691000", "115939.695000", "115940.678000", "115941.684000", "115942.695000", "115943.704000", "115944.698000", "115945.692000", "115946.692000", "115947.697000", "115948.690000", "115949.692000", "115950.665000", "115951.698000", "115952.690000", "115953.687000", "115954.683000", "115955.696000", "115956.692000", "115957.702000", "115958.715000", "115959.672000", "120000.700000", "120001.681000", "120002.702000", "120003.692000", "120004.669000", "120005.665000", "120006.678000", "120007.681000", "120008.692000", "120009.703000", "120010.678000", "120011.667000", "120012.683000", "120013.680000", "120014.728000", "120015.658000", "120016.694000", "120017.694000", "120018.686000", "120019.688000", "120020.655000", "120021.678000", "120022.674000", "120023.668000", "120024.696000", "120025.689000", "120026.685000", "120027.690000", "120028.677000", "120029.689000", "120030.685000", "120031.696000", "120032.687000", "120033.684000", "120034.685000", "120035.703000", "120036.677000", "120037.651000", "120038.699000", "120039.701000", "120040.698000", "120041.655000", "120042.705000", "120043.726000", "120044.707000", "120045.718000", "120046.705000", "120047.696000", "120048.704000", "120049.683000", "120050.696000", "120051.709000"],
      "InstanceNumber": [1, 2, 3, 4, 5, 6, 7, 8, 9, 10, 11, 12, 13, 14, 15, 16, 17, 18, 19, 20, 21, 22, 23, 24, 25, 26, 27, 28, 29, 30, 31, 32, 33, 34, 35, 36, 37, 38, 39, 40, 41, 42, 43, 44, 45, 46, 47, 48, 49, 50, 51, 52, 53, 54, 55, 56, 57, 58, 59, 60, 61, 62, 63, 64, 65, 66, 67, 68, 69, 70, 71, 72, 73, 74, 75, 76, 77, 78, 79, 80, 81, 82, 83, 84, 85, 86, 87, 88, 89, 90, 91, 92, 93, 94, 95, 96, 97, 98, 99, 100, 101, 102, 103, 104, 105, 106, 107, 108, 109, 110, 111, 112, 113, 114, 115, 116, 117, 118, 119, 120, 121, 122, 123, 124, 125, 126, 127, 128, 129, 130, 131, 132, 133, 134, 135, 136, 137, 138, 139, 140, 141, 142, 143, 144, 145, 146, 147, 148, 149, 150, 151, 152, 153, 154, 155, 156, 157, 158, 159, 160, 161, 162, 163, 164, 165, 166, 167, 168, 169, 170, 171, 172, 173, 174, 175, 176, 177, 178, 179, 180, 181, 182, 183, 184, 185, 186, 187, 188, 189, 190, 191, 192, 193, 194, 195, 196, 197, 198, 199, 200, 201, 202, 203, 204, 205, 206, 207, 208, 209, 210, 211, 212, 213, 214, 215, 216, 217, 218, 219, 220, 221, 222, 223, 224, 225, 226, 227, 228, 229, 230, 231, 232, 233, 234, 235, 236, 237, 238, 239, 240, 241, 242, 243, 244, 245, 246, 247, 248, 249, 250, 251, 252, 253, 254, 255, 256, 257, 258, 259, 260, 261, 262, 263, 264, 265, 266, 267, 268, 269, 270, 271, 272, 273, 274, 275, 276, 277, 278, 279, 280, 281, 282, 283, 284, 285, 286, 287, 288],
      "LargestImagePixelValue": [647, 664, 618, 629, 642, 648, 629, 661, 832, 616, 631, 613, 633, 632, 743, 629, 629, 625, 690, 657, 915, 612, 636, 604, 626, 638, 651, 813, 684, 599, 604, 624, 658, 868, 817, 636, 640, 619, 607, 624, 636, 854, 600, 658, 640, 610, 626, 630, 640, 700, 822, 766, 622, 636, 602, 645, 669, 685, 656, 601, 646, 619, 603, 605, 615, 639, 649, 696, 647, 803, 846, 648, 630, 651, 613, 603, 605, 628, 648, 647, 812, 702, 639, 619, 635, 663, 621, 743, 711, 630, 638, 641, 609, 607, 590, 599, 614, 625, 621, 648, 647, 637, 613, 640, 628, 742, 642, 623, 673, 662, 685, 615, 662, 653, 635, 629, 611, 602, 621, 779, 639, 627, 699, 667, 628, 619, 673, 623, 607, 697, 660, 647, 603, 614, 685, 615, 703, 647, 688, 617, 649, 613, 604, 657, 630, 670, 602, 665, 613, 605, 626, 714, 709, 600, 664, 598, 615, 619, 670, 705, 674, 599, 654, 609, 609, 629, 707, 639, 783, 646, 632, 618, 604, 607, 636, 634, 663, 633, 653, 883, 646, 632, 655, 675, 661, 608, 630, 663, 635, 627, 704, 646, 637, 640, 613, 612, 643, 611, 605, 594, 606, 649, 635, 603, 614, 590, 601, 597, 655, 614, 629, 648, 634, 659, 649, 666, 666, 627, 655, 720, 653, 660, 620, 659, 707, 634, 613, 619, 626, 770, 739, 649, 662, 688, 632, 661, 798, 697, 622, 641, 665, 643, 633, 660, 667, 614, 607, 667, 649, 632, 704, 602, 591, 612, 639, 649, 630, 641, 647, 687, 751, 643, 827, 613, 672, 630, 609, 665, 616, 619, 602, 632, 636, 639, 682, 675, 641, 633, 669, 629, 639, 668, 652, 637, 645, 595, 625, 602],
      "WindowCenter": [322.0, 321.0, 321.0, 321.0, 321.0, 321.0, 320.0, 321.0, 323.0, 320.0, 320.0, 319.0, 320.0, 321.0, 322.0, 321.0, 321.0, 322.0, 322.0, 321.0, 323.0, 319.0, 319.0, 319.0, 319.0, 320.0, 320.0, 322.0, 321.0, 320.0, 320.0, 320.0, 320.0, 322.0, 321.0, 319.0, 319.0, 319.0, 319.0, 318.0, 319.0, 321.0, 319.0, 319.0, 319.0, 319.0, 319.0, 320.0, 320.0, 321.0, 322.0, 321.0, 320.0, 320.0, 319.0, 320.0, 320.0, 320.0, 320.0, 319.0, 321.0, 320.0, 320.0, 320.0, 320.0, 321.0, 321.0, 321.0, 320.0, 322.0, 322.0, 320.0, 320.0, 321.0, 320.0, 320.0, 320.0, 320.0, 320.0, 320.0, 322.0, 321.0, 320.0, 321.0, 321.0, 321.0, 321.0, 322.0, 321.0, 321.0, 320.0, 320.0, 319.0, 319.0, 319.0, 319.0, 320.0, 320.0, 320.0, 321.0, 321.0, 321.0, 321.0, 321.0, 320.0, 321.0, 320.0, 320.0, 321.0, 320.0, 321.0, 320.0, 321.0, 321.0, 322.0, 321.0, 321.0, 320.0, 320.0, 322.0, 320.0, 320.0, 321.0, 321.0, 321.0, 321.0, 322.0, 322.0, 321.0, 322.0, 322.0, 321.0, 320.0, 320.0, 321.0, 320.0, 321.0, 321.0, 322.0, 321.0, 321.0, 320.0, 320.0, 321.0, 320.0, 321.0, 320.0, 321.0, 320.0, 320.0, 320.0, 321.0, 321.0, 320.0, 321.0, 320.0, 321.0, 321.0, 322.0, 321.0, 321.0, 320.0, 321.0, 320.0, 320.0, 320.0, 321.0, 320.0, 322.0, 320.0, 320.0, 321.0, 320.0, 320.0, 321.0, 321.0, 321.0, 321.0, 321.0, 324.0, 321.0, 321.0, 321.0, 321.0, 321.0, 320.0, 321.0, 322.0, 321.0, 321.0, 322.0, 321.0, 321.0, 321.0, 321.0, 321.0, 321.0, 321.0, 320.0, 320.0, 320.0, 322.0, 321.0, 320.0, 321.0, 320.0, 320.0, 320.0, 321.0, 320.0, 320.0, 320.0, 320.0, 321.0, 321.0, 321.0, 321.0, 321.0, 321.0, 322.0, 321.0, 321.0, 321.0, 321.0, 322.0, 322.0, 321.0, 321.0, 321.0, 323.0, 322.0, 321.0, 322.0, 322.0, 322.0, 322.0, 324.0, 322.0, 320.0, 321.0, 320.0, 320.0, 321.0, 321.0, 322.0, 321.0, 321.0, 322.0, 321.0, 321.0, 321.0, 320.0, 320.0, 320.0, 321.0, 321.0, 321.0, 321.0, 321.0, 321.0, 322.0, 320.0, 323.0, 320.0, 321.0, 321.0, 321.0, 322.0, 320.0, 320.0, 320.0, 321.0, 321.0, 321.0, 322.0, 321.0, 321.0, 321.0, 321.0, 321.0, 322.0, 322.0, 322.0, 322.0, 322.0, 320.0, 321.0, 320.0],
      "WindowWidth": [697.0, 696.0, 695.0, 695.0, 695.0, 695.0, 693.0, 694.0, 697.0, 694.0, 694.0, 692.0, 694.0, 694.0, 697.0, 695.0, 695.0, 696.0, 696.0, 694.0, 697.0, 692.0, 692.0, 691.0, 692.0, 693.0, 693.0, 696.0, 694.0, 694.0, 694.0, 693.0, 693.0, 696.0, 694.0, 692.0, 692.0, 691.0, 691.0, 691.0, 691.0, 695.0, 691.0, 692.0, 691.0, 691.0, 692.0, 693.0, 694.0, 695.0, 695.0, 695.0, 693.0, 693.0, 692.0, 693.0, 693.0, 694.0, 693.0, 692.0, 694.0, 694.0, 694.0, 694.0, 694.0, 695.0, 694.0, 696.0, 694.0, 696.0, 697.0, 693.0, 693.0, 694.0, 693.0, 694.0, 694.0, 694.0, 694.0, 693.0, 696.0, 694.0, 694.0, 695.0, 695.0, 696.0, 695.0, 697.0, 696.0, 694.0, 693.0, 693.0, 692.0, 692.0, 693.0, 692.0, 693.0, 693.0, 693.0, 694.0, 695.0, 695.0, 695.0, 695.0, 694.0, 695.0, 693.0, 693.0, 694.0, 693.0, 694.0, 694.0, 695.0, 696.0, 696.0, 695.0, 695.0, 694.0, 694.0, 696.0, 694.0, 694.0, 696.0, 695.0, 695.0, 695.0, 696.0, 697.0, 696.0, 697.0, 696.0, 695.0, 694.0, 694.0, 694.0, 694.0, 696.0, 695.0, 697.0, 695.0, 695.0, 694.0, 694.0, 695.0, 694.0, 694.0, 694.0, 694.0, 694.0, 694.0, 694.0, 696.0, 695.0, 694.0, 695.0, 694.0, 695.0, 695.0, 696.0, 695.0, 696.0, 694.0, 695.0, 694.0, 694.0, 693.0, 694.0, 693.0, 696.0, 694.0, 694.0, 695.0, 694.0, 694.0, 695.0, 695.0, 695.0, 695.0, 695.0, 699.0, 695.0, 695.0, 696.0, 695.0, 695.0, 694.0, 695.0, 696.0, 695.0, 695.0, 696.0, 695.0, 695.0, 695.0, 695.0, 695.0, 695.0, 695.0, 695.0, 694.0, 694.0, 697.0, 695.0, 694.0, 695.0, 694.0, 694.0, 694.0, 695.0, 694.0, 694.0, 694.0, 694.0, 695.0, 695.0, 696.0, 696.0, 695.0, 696.0, 697.0, 695.0, 695.0, 695.0, 695.0, 696.0, 696.0, 696.0, 696.0, 696.0, 698.0, 697.0, 695.0, 696.0, 697.0, 698.0, 698.0, 699.0, 696.0, 694.0, 694.0, 694.0, 694.0, 695.0, 695.0, 696.0, 696.0, 696.0, 696.0, 695.0, 695.0, 696.0, 694.0, 694.0, 694.0, 694.0, 695.0, 695.0, 695.0, 695.0, 695.0, 696.0, 693.0, 697.0, 693.0, 695.0, 695.0, 695.0, 696.0, 694.0, 694.0, 694.0, 695.0, 695.0, 695.0, 696.0, 696.0, 695.0, 695.0, 695.0, 695.0, 696.0, 696.0, 696.0, 696.0, 696.0, 695.0, 695.0, 695.0]
    },
    "slices": {}
  }
}