{
  "AcquisitionMatrixPE": 96,
  "AcquisitionNumber": 1,
  "AcquisitionTime": "11:34:58.845000",
  "BandwidthPerPixelPhaseEncode": 18.939,
  "BaseResolution": 96,
  "BodyPartExamined": "BRAIN",
  "ConsistencyInfo": "N4_VE11C_LATEST_20160120",
  "ConversionSoftware": "dcm2niix",
  "ConversionSoftwareVersion": "v1.0.20171215 (OpenJPEG build) GCC6.3.0",
  "DerivedVendorReportedEchoSpacing": 0.000550011,
  "DeviceSerialNumber": "66112",
  "DwellTime": 2.2e-06,
  "EchoTime": 0.033,
  "EchoTrainLength": 96,
  "EffectiveEchoSpacing": 0.000550011,
  "FlipAngle": 59,
  "ImageOrientationPatientDICOM": [
    0.999425,
    0.0186473,
    -0.028329,
    -0.0183174,
    0.999762,
    0.01186
  ],
  "ImageType": [
    "ORIGINAL",
    "PRIMARY",
    "FMRI",
    "NONE",
    "ND",
    "NORM",
    "MOSAIC"
  ],
  "InPlanePhaseEncodingDirectionDICOM": "COL",
  "InstitutionAddress": "Maynard_3_Hanover_NH_US_03755",
  "InstitutionName": "Dartmouth_College_-_PBS",
  "InstitutionalDepartmentName": "Department",
  "MRAcquisitionType": "2D",
  "MagneticFieldStrength": 3,
  "Manufacturer": "Siemens",
  "ManufacturersModelName": "Prisma",
  "Modality": "MR",
  "MultibandAccelerationFactor": 4,
  "PatientPosition": "HFS",
  "PercentPhaseFOV": 100,
  "PhaseEncodingDirection": "j-",
  "PhaseEncodingSteps": 96,
  "PhaseResolution": 1,
  "PixelBandwidth": 2365,
  "ProcedureStepDescription": "Gobbini_Matteo_1038_hyperface",
  "ProtocolName": "func_run-03_task-visualmemory",
  "PulseSequenceDetails": "%SiemensSeq%_ep2d_bold",
  "ReceiveCoilActiveElements": "HEA;HEP",
  "ReceiveCoilName": "Head_32",
  "ReconMatrixPE": 96,
  "RepetitionTime": 1,
  "SAR": 0.0471199,
  "ScanOptions": "FS",
  "ScanningSequence": "EP",
  "SequenceName": "_epfid2d1_96",
  "SequenceVariant": "SK",
  "SeriesDescription": "func_run-03_task-visualmemory",
  "SeriesNumber": 22,
  "ShimSetting": [
    4146,
    -7755,
    -7431,
    852,
    -97,
    -440,
    341,
    78
  ],
  "SliceThickness": 2.5,
  "SliceTiming": [
    0.735,
    0,
    0.49,
    0.08,
    0.57,
    0.1625,
    0.6525,
    0.325,
    0.815,
    0.4075,
    0.8975,
    0.245,
    0.735,
    0,
    0.49,
    0.08,
    0.57,
    0.1625,
    0.6525,
    0.325,
    0.815,
    0.4075,
    0.8975,
    0.245,
    0.735,
    0,
    0.49,
    0.08,
    0.57,
    0.1625,
    0.6525,
    0.325,
    0.815,
    0.4075,
    0.8975,
    0.245,
    0.735,
    0,
    0.49,
    0.08,
    0.57,
    0.1625,
    0.6525,
    0.325,
    0.815,
    0.4075,
    0.8975,
    0.245
  ],
  "SoftwareVersions": "syngo_MR_E11",
  "SpacingBetweenSlices": 2.5,
  "StationName": "AWP66112",
  "TotalReadoutTime": 0.0522511,
  "TxRefAmp": 238.973,
  "dcmmeta_affine": [
    [
      -2.4985618591308594,
      -0.04579360783100128,
      -0.07135855406522751,
      123.42772674560547
    ],
    [
      -0.04661831632256508,
      2.4994046688079834,
      0.028335563838481903,
      -104.53662872314453
    ],
    [
      -0.07082252949476242,
      -0.02964990772306919,
      2.4988207817077637,
      -84.08248901367188
    ],
    [
      0.0,
      0.0,
      0.0,
      1.0
    ]
  ],
  "dcmmeta_reorient_transform": [
    [
      0.0,
      -1.0,
      0.0,
      95.0
    ],
    [
      1.0,
      0.0,
      0.0,
      0.0
    ],
    [
      0.0,
      0.0,
      1.0,
      0.0
    ],
    [
      0.0,
      0.0,
      0.0,
      1.0
    ]
  ],
  "dcmmeta_shape": [
    96,
    96,
    48,
    288
  ],
  "dcmmeta_slice_dim": 2,
  "dcmmeta_version": 0.6,
  "global": {
    "const": {
      "AccessionNumber": "A001308",
      "AcquisitionMatrix": [
        96,
        0,
        0,
        96
      ],
      "AngioFlag": "N",
      "BitsAllocated": 16,
      "BitsStored": 12,
      "BodyPartExamined": "BRAIN",
      "Columns": 672,
      "EchoNumbers": 1,
      "EchoTime": 33.0,
      "EchoTrainLength": 96,
      "FlipAngle": 59.0,
      "HighBit": 11,
      "ImageOrientationPatient": [
        0.99942470670223,
        0.01864732660518,
        -0.0283290106365,
        -0.0183174431491,
        0.99976187792586,
        0.01185996301216
      ],
      "ImagePositionPatient": [
        -825.47456020311,
        -866.16144184331,
        -75.041518794415
      ],
      "ImageType": [
        "ORIGINAL",
        "PRIMARY",
        "FMRI",
        "NONE",
        "ND",
        "NORM",
        "MOSAIC"
      ],
      "ImagedNucleus": "1H",
      "ImagingFrequency": 123.252366,
      "InPlanePhaseEncodingDirection": "COL",
      "MRAcquisitionType": "2D",
      "MagneticFieldStrength": 3.0,
      "Manufacturer": "SIEMENS",
      "ManufacturerModelName": "Prisma",
      "Modality": "MR",
      "NumberOfAverages": 1.0,
      "NumberOfPhaseEncodingSteps": 96,
      "PercentPhaseFieldOfView": 100.0,
      "PercentSampling": 100.0,
      "PerformedProcedureStepStartTime": "111704.481000",
      "PhotometricInterpretation": "MONOCHROME2",
      "PixelBandwidth": 2365.0,
      "PixelRepresentation": 0,
      "PixelSpacing": [
        2.5,
        2.5
      ],
      "PositionReferenceIndicator": "",
      "ProtocolName": "func_run-03_task-visualmemory",
      "RepetitionTime": 1000.0,
      "Rows": 672,
      "SAR": 0.0471198857278,
      "SamplesPerPixel": 1,
      "ScanOptions": "FS",
      "ScanningSequence": "EP",
      "SequenceName": "*epfid2d1_96",
      "SequenceVariant": "SK",
      "SeriesDescription": "func_run-03_task-visualmemory",
      "SeriesNumber": 22,
      "SeriesTime": "113459.937000",
      "SliceLocation": -88.750720793228,
      "SliceThickness": 2.5,
      "SmallestImagePixelValue": 0,
      "SoftwareVersions": "syngo MR E11",
      "SpacingBetweenSlices": 2.5000000392414,
      "SpecificCharacterSet": "ISO_IR 100",
      "StudyID": "3",
      "StudyTime": "111704.427000",
      "TransmitCoilName": "Body",
      "VariableFlipAngleFlag": "N",
      "WindowCenterWidthExplanation": "Algo1",
      "dBdt": 0.0
    },
    "slices": {}
  },
  "time": {
    "samples": {
      "AcquisitionNumber": [
        1,
        2,
        3,
        4,
        5,
        6,
        7,
        8,
        9,
        10,
        11,
        12,
        13,
        14,
        15,
        16,
        17,
        18,
        19,
        20,
        21,
        22,
        23,
        24,
        25,
        26,
        27,
        28,
        29,
        30,
        31,
        32,
        33,
        34,
        35,
        36,
        37,
        38,
        39,
        40,
        41,
        42,
        43,
        44,
        45,
        46,
        47,
        48,
        49,
        50,
        51,
        52,
        53,
        54,
        55,
        56,
        57,
        58,
        59,
        60,
        61,
        62,
        63,
        64,
        65,
        66,
        67,
        68,
        69,
        70,
        71,
        72,
        73,
        74,
        75,
        76,
        77,
        78,
        79,
        80,
        81,
        82,
        83,
        84,
        85,
        86,
        87,
        88,
        89,
        90,
        91,
        92,
        93,
        94,
        95,
        96,
        97,
        98,
        99,
        100,
        101,
        102,
        103,
        104,
        105,
        106,
        107,
        108,
        109,
        110,
        111,
        112,
        113,
        114,
        115,
        116,
        117,
        118,
        119,
        120,
        121,
        122,
        123,
        124,
        125,
        126,
        127,
        128,
        129,
        130,
        131,
        132,
        133,
        134,
        135,
        136,
        137,
        138,
        139,
        140,
        141,
        142,
        143,
        144,
        145,
        146,
        147,
        148,
        149,
        150,
        151,
        152,
        153,
        154,
        155,
        156,
        157,
        158,
        159,
        160,
        161,
        162,
        163,
        164,
        165,
        166,
        167,
        168,
        169,
        170,
        171,
        172,
        173,
        174,
        175,
        176,
        177,
        178,
        179,
        180,
        181,
        182,
        183,
        184,
        185,
        186,
        187,
        188,
        189,
        190,
        191,
        192,
        193,
        194,
        195,
        196,
        197,
        198,
        199,
        200,
        201,
        202,
        203,
        204,
        205,
        206,
        207,
        208,
        209,
        210,
        211,
        212,
        213,
        214,
        215,
        216,
        217,
        218,
        219,
        220,
        221,
        222,
        223,
        224,
        225,
        226,
        227,
        228,
        229,
        230,
        231,
        232,
        233,
        234,
        235,
        236,
        237,
        238,
        239,
        240,
        241,
        242,
        243,
        244,
        245,
        246,
        247,
        248,
        249,
        250,
        251,
        252,
        253,
        254,
        255,
        256,
        257,
        258,
        259,
        260,
        261,
        262,
        263,
        264,
        265,
        266,
        267,
        268,
        269,
        270,
        271,
        272,
        273,
        274,
        275,
        276,
        277,
        278,
        279,
        280,
        281,
        282,
        283,
        284,
        285,
        286,
        287,
        288
      ],
      "AcquisitionTime": [
        "113458.845000",
        "113459.845000",
        "113500.845000",
        "113501.845000",
        "113502.845000",
        "113503.845000",
        "113504.845000",
        "113505.845000",
        "113506.845000",
        "113507.845000",
        "113508.845000",
        "113509.845000",
        "113510.845000",
        "113511.845000",
        "113512.845000",
        "113513.845000",
        "113514.845000",
        "113515.845000",
        "113516.845000",
        "113517.845000",
        "113518.845000",
        "113519.845000",
        "113520.845000",
        "113521.845000",
        "113522.845000",
        "113523.845000",
        "113524.845000",
        "113525.845000",
        "113526.845000",
        "113527.845000",
        "113528.845000",
        "113529.845000",
        "113530.845000",
        "113531.845000",
        "113532.845000",
        "113533.845000",
        "113534.845000",
        "113535.845000",
        "113536.845000",
        "113537.845000",
        "113538.845000",
        "113539.845000",
        "113540.845000",
        "113541.845000",
        "113542.845000",
        "113543.845000",
        "113544.845000",
        "113545.845000",
        "113546.845000",
        "113547.845000",
        "113548.845000",
        "113549.845000",
        "113550.845000",
        "113551.845000",
        "113552.845000",
        "113553.845000",
        "113554.845000",
        "113555.845000",
        "113556.845000",
        "113557.845000",
        "113558.845000",
        "113559.845000",
        "113600.845000",
        "113601.845000",
        "113602.845000",
        "113603.845000",
        "113604.845000",
        "113605.845000",
        "113606.845000",
        "113607.845000",
        "113608.845000",
        "113609.845000",
        "113610.845000",
        "113611.845000",
        "113612.845000",
        "113613.845000",
        "113614.845000",
        "113615.845000",
        "113616.845000",
        "113617.845000",
        "113618.845000",
        "113619.845000",
        "113620.845000",
        "113621.845000",
        "113622.845000",
        "113623.845000",
        "113624.845000",
        "113625.845000",
        "113626.845000",
        "113627.845000",
        "113628.845000",
        "113629.845000",
        "113630.845000",
        "113631.845000",
        "113632.845000",
        "113633.845000",
        "113634.845000",
        "113635.845000",
        "113636.845000",
        "113637.845000",
        "113638.845000",
        "113639.845000",
        "113640.845000",
        "113641.845000",
        "113642.845000",
        "113643.845000",
        "113644.845000",
        "113645.845000",
        "113646.845000",
        "113647.845000",
        "113648.845000",
        "113649.845000",
        "113650.845000",
        "113651.845000",
        "113652.845000",
        "113653.845000",
        "113654.845000",
        "113655.845000",
        "113656.845000",
        "113657.845000",
        "113658.845000",
        "113659.845000",
        "113700.845000",
        "113701.845000",
        "113702.845000",
        "113703.845000",
        "113704.845000",
        "113705.845000",
        "113706.845000",
        "113707.845000",
        "113708.845000",
        "113709.845000",
        "113710.845000",
        "113711.845000",
        "113712.845000",
        "113713.845000",
        "113714.845000",
        "113715.845000",
        "113716.845000",
        "113717.845000",
        "113718.845000",
        "113719.845000",
        "113720.845000",
        "113721.845000",
        "113722.845000",
        "113723.845000",
        "113724.845000",
        "113725.845000",
        "113726.845000",
        "113727.845000",
        "113728.845000",
        "113729.845000",
        "113730.845000",
        "113731.845000",
        "113732.845000",
        "113733.845000",
        "113734.845000",
        "113735.845000",
        "113736.845000",
        "113737.845000",
        "113738.845000",
        "113739.845000",
        "113740.845000",
        "113741.845000",
        "113742.845000",
        "113743.845000",
        "113744.845000",
        "113745.845000",
        "113746.845000",
        "113747.845000",
        "113748.845000",
        "113749.845000",
        "113750.845000",
        "113751.845000",
        "113752.845000",
        "113753.845000",
        "113754.845000",
        "113755.845000",
        "113756.845000",
        "113757.845000",
        "113758.845000",
        "113759.845000",
        "113800.845000",
        "113801.845000",
        "113802.845000",
        "113803.845000",
        "113804.845000",
        "113805.845000",
        "113806.845000",
        "113807.845000",
        "113808.845000",
        "113809.845000",
        "113810.845000",
        "113811.845000",
        "113812.845000",
        "113813.845000",
        "113814.845000",
        "113815.845000",
        "113816.845000",
        "113817.845000",
        "113818.845000",
        "113819.845000",
        "113820.845000",
        "113821.845000",
        "113822.845000",
        "113823.845000",
        "113824.845000",
        "113825.845000",
        "113826.845000",
        "113827.845000",
        "113828.845000",
        "113829.845000",
        "113830.845000",
        "113831.845000",
        "113832.845000",
        "113833.845000",
        "113834.845000",
        "113835.845000",
        "113836.845000",
        "113837.845000",
        "113838.845000",
        "113839.845000",
        "113840.845000",
        "113841.845000",
        "113842.845000",
        "113843.845000",
        "113844.845000",
        "113845.845000",
        "113846.845000",
        "113847.845000",
        "113848.845000",
        "113849.845000",
        "113850.845000",
        "113851.845000",
        "113852.845000",
        "113853.845000",
        "113854.845000",
        "113855.845000",
        "113856.845000",
        "113857.845000",
        "113858.845000",
        "113859.845000",
        "113900.845000",
        "113901.845000",
        "113902.845000",
        "113903.845000",
        "113904.845000",
        "113905.845000",
        "113906.845000",
        "113907.845000",
        "113908.845000",
        "113909.845000",
        "113910.845000",
        "113911.845000",
        "113912.845000",
        "113913.845000",
        "113914.845000",
        "113915.845000",
        "113916.845000",
        "113917.845000",
        "113918.845000",
        "113919.845000",
        "113920.845000",
        "113921.845000",
        "113922.845000",
        "113923.845000",
        "113924.845000",
        "113925.845000",
        "113926.845000",
        "113927.845000",
        "113928.845000",
        "113929.845000",
        "113930.845000",
        "113931.845000",
        "113932.845000",
        "113933.845000",
        "113934.845000",
        "113935.845000",
        "113936.845000",
        "113937.845000",
        "113938.845000",
        "113939.845000",
        "113940.845000",
        "113941.845000",
        "113942.845000",
        "113943.845000",
        "113944.845000",
        "113945.845000"
      ],
      "ContentTime": [
        "113459.941000",
        "113500.720000",
        "113501.737000",
        "113502.728000",
        "113503.820000",
        "113504.752000",
        "113505.735000",
        "113506.760000",
        "113507.744000",
        "113508.717000",
        "113509.719000",
        "113510.716000",
        "113511.718000",
        "113512.756000",
        "113513.765000",
        "113514.721000",
        "113515.789000",
        "113516.737000",
        "113517.714000",
        "113518.740000",
        "113519.721000",
        "113520.746000",
        "113521.751000",
        "113522.721000",
        "113523.725000",
        "113524.714000",
        "113525.724000",
        "113526.765000",
        "113527.753000",
        "113528.723000",
        "113529.746000",
        "113530.744000",
        "113531.740000",
        "113532.771000",
        "113533.743000",
        "113534.732000",
        "113535.735000",
        "113536.732000",
        "113537.730000",
        "113538.704000",
        "113539.746000",
        "113540.753000",
        "113541.742000",
        "113542.737000",
        "113543.743000",
        "113544.720000",
        "113545.729000",
        "113546.753000",
        "113547.728000",
        "113548.728000",
        "113549.733000",
        "113550.732000",
        "113551.729000",
        "113552.731000",
        "113553.731000",
        "113554.733000",
        "113555.760000",
        "113556.745000",
        "113557.738000",
        "113558.720000",
        "113559.735000",
        "113600.732000",
        "113601.728000",
        "113602.718000",
        "113603.725000",
        "113604.729000",
        "113605.747000",
        "113606.728000",
        "113607.720000",
        "113608.703000",
        "113609.709000",
        "113610.717000",
        "113611.746000",
        "113612.726000",
        "113613.739000",
        "113614.748000",
        "113615.730000",
        "113616.738000",
        "113617.732000",
        "113618.750000",
        "113619.777000",
        "113620.728000",
        "113621.737000",
        "113622.722000",
        "113623.737000",
        "113624.758000",
        "113625.728000",
        "113626.717000",
        "113627.733000",
        "113628.725000",
        "113629.735000",
        "113630.702000",
        "113631.762000",
        "113632.716000",
        "113633.737000",
        "113634.725000",
        "113635.757000",
        "113636.726000",
        "113637.710000",
        "113638.789000",
        "113639.801000",
        "113640.731000",
        "113641.750000",
        "113642.750000",
        "113643.754000",
        "113644.754000",
        "113645.751000",
        "113646.749000",
        "113647.734000",
        "113648.750000",
        "113649.762000",
        "113650.737000",
        "113651.748000",
        "113652.730000",
        "113653.748000",
        "113654.735000",
        "113655.742000",
        "113656.748000",
        "113657.737000",
        "113658.751000",
        "113659.718000",
        "113700.749000",
        "113701.745000",
        "113702.736000",
        "113703.758000",
        "113704.731000",
        "113705.736000",
        "113706.745000",
        "113707.739000",
        "113708.739000",
        "113709.718000",
        "113710.711000",
        "113711.742000",
        "113712.745000",
        "113713.717000",
        "113714.733000",
        "113715.729000",
        "113716.723000",
        "113717.747000",
        "113718.729000",
        "113719.734000",
        "113720.755000",
        "113721.715000",
        "113722.736000",
        "113723.761000",
        "113724.745000",
        "113725.755000",
        "113726.744000",
        "113727.729000",
        "113728.774000",
        "113729.750000",
        "113730.743000",
        "113731.742000",
        "113732.757000",
        "113733.742000",
        "113734.760000",
        "113735.740000",
        "113736.745000",
        "113737.734000",
        "113738.739000",
        "113739.739000",
        "113740.785000",
        "113741.721000",
        "113742.762000",
        "113743.738000",
        "113744.749000",
        "113745.739000",
        "113746.799000",
        "113747.768000",
        "113748.752000",
        "113749.719000",
        "113750.753000",
        "113751.708000",
        "113752.755000",
        "113753.725000",
        "113754.730000",
        "113755.735000",
        "113756.754000",
        "113757.735000",
        "113758.760000",
        "113759.721000",
        "113800.733000",
        "113801.732000",
        "113802.778000",
        "113803.747000",
        "113804.719000",
        "113805.757000",
        "113806.751000",
        "113807.740000",
        "113808.751000",
        "113809.773000",
        "113810.751000",
        "113811.743000",
        "113812.757000",
        "113813.724000",
        "113814.724000",
        "113815.741000",
        "113816.728000",
        "113817.724000",
        "113818.736000",
        "113819.764000",
        "113820.725000",
        "113821.731000",
        "113822.746000",
        "113823.744000",
        "113824.741000",
        "113825.734000",
        "113826.729000",
        "113827.726000",
        "113828.747000",
        "113829.739000",
        "113830.764000",
        "113831.727000",
        "113832.747000",
        "113833.711000",
        "113834.722000",
        "113835.781000",
        "113836.769000",
        "113837.735000",
        "113838.706000",
        "113839.755000",
        "113840.736000",
        "113841.736000",
        "113842.776000",
        "113843.751000",
        "113844.733000",
        "113845.755000",
        "113846.717000",
        "113847.746000",
        "113848.770000",
        "113849.749000",
        "113850.749000",
        "113851.731000",
        "113852.730000",
        "113853.729000",
        "113854.732000",
        "113855.734000",
        "113856.744000",
        "113857.730000",
        "113858.734000",
        "113859.767000",
        "113900.742000",
        "113901.716000",
        "113902.735000",
        "113903.732000",
        "113904.736000",
        "113905.724000",
        "113906.744000",
        "113907.742000",
        "113908.735000",
        "113909.711000",
        "113910.713000",
        "113911.738000",
        "113912.727000",
        "113913.712000",
        "113914.721000",
        "113915.730000",
        "113916.737000",
        "113917.746000",
        "113918.776000",
        "113919.758000",
        "113920.721000",
        "113921.813000",
        "113922.780000",
        "113923.744000",
        "113924.760000",
        "113925.755000",
        "113926.761000",
        "113927.775000",
        "113928.753000",
        "113929.688000",
        "113930.741000",
        "113931.735000",
        "113932.733000",
        "113933.726000",
        "113934.704000",
        "113935.728000",
        "113936.723000",
        "113937.732000",
        "113938.717000",
        "113939.753000",
        "113940.736000",
        "113941.757000",
        "113942.728000",
        "113943.739000",
        "113944.735000",
        "113945.728000",
        "113946.763000"
      ],
      "InstanceCreationTime": [
        "113459.941000",
        "113500.720000",
        "113501.737000",
        "113502.728000",
        "113503.820000",
        "113504.752000",
        "113505.735000",
        "113506.760000",
        "113507.744000",
        "113508.717000",
        "113509.719000",
        "113510.716000",
        "113511.718000",
        "113512.756000",
        "113513.765000",
        "113514.721000",
        "113515.789000",
        "113516.737000",
        "113517.714000",
        "113518.740000",
        "113519.721000",
        "113520.746000",
        "113521.751000",
        "113522.721000",
        "113523.725000",
        "113524.714000",
        "113525.724000",
        "113526.765000",
        "113527.753000",
        "113528.723000",
        "113529.746000",
        "113530.744000",
        "113531.740000",
        "113532.771000",
        "113533.743000",
        "113534.732000",
        "113535.735000",
        "113536.732000",
        "113537.730000",
        "113538.704000",
        "113539.746000",
        "113540.753000",
        "113541.742000",
        "113542.737000",
        "113543.743000",
        "113544.720000",
        "113545.729000",
        "113546.753000",
        "113547.728000",
        "113548.728000",
        "113549.733000",
        "113550.732000",
        "113551.729000",
        "113552.731000",
        "113553.731000",
        "113554.733000",
        "113555.760000",
        "113556.745000",
        "113557.738000",
        "113558.720000",
        "113559.735000",
        "113600.732000",
        "113601.728000",
        "113602.718000",
        "113603.725000",
        "113604.729000",
        "113605.747000",
        "113606.728000",
        "113607.720000",
        "113608.703000",
        "113609.709000",
        "113610.717000",
        "113611.746000",
        "113612.726000",
        "113613.739000",
        "113614.748000",
        "113615.730000",
        "113616.738000",
        "113617.732000",
        "113618.750000",
        "113619.777000",
        "113620.728000",
        "113621.737000",
        "113622.722000",
        "113623.737000",
        "113624.758000",
        "113625.728000",
        "113626.717000",
        "113627.733000",
        "113628.725000",
        "113629.735000",
        "113630.702000",
        "113631.762000",
        "113632.716000",
        "113633.737000",
        "113634.725000",
        "113635.757000",
        "113636.726000",
        "113637.710000",
        "113638.789000",
        "113639.801000",
        "113640.731000",
        "113641.750000",
        "113642.750000",
        "113643.754000",
        "113644.754000",
        "113645.751000",
        "113646.749000",
        "113647.734000",
        "113648.750000",
        "113649.762000",
        "113650.737000",
        "113651.748000",
        "113652.730000",
        "113653.748000",
        "113654.735000",
        "113655.742000",
        "113656.748000",
        "113657.737000",
        "113658.751000",
        "113659.718000",
        "113700.749000",
        "113701.745000",
        "113702.736000",
        "113703.758000",
        "113704.731000",
        "113705.736000",
        "113706.745000",
        "113707.739000",
        "113708.739000",
        "113709.718000",
        "113710.711000",
        "113711.742000",
        "113712.745000",
        "113713.717000",
        "113714.733000",
        "113715.729000",
        "113716.723000",
        "113717.747000",
        "113718.729000",
        "113719.734000",
        "113720.755000",
        "113721.715000",
        "113722.736000",
        "113723.761000",
        "113724.745000",
        "113725.755000",
        "113726.744000",
        "113727.729000",
        "113728.774000",
        "113729.750000",
        "113730.743000",
        "113731.742000",
        "113732.757000",
        "113733.742000",
        "113734.760000",
        "113735.740000",
        "113736.745000",
        "113737.734000",
        "113738.739000",
        "113739.739000",
        "113740.785000",
        "113741.721000",
        "113742.762000",
        "113743.738000",
        "113744.749000",
        "113745.739000",
        "113746.799000",
        "113747.768000",
        "113748.752000",
        "113749.719000",
        "113750.753000",
        "113751.708000",
        "113752.755000",
        "113753.725000",
        "113754.730000",
        "113755.735000",
        "113756.754000",
        "113757.735000",
        "113758.760000",
        "113759.721000",
        "113800.733000",
        "113801.732000",
        "113802.778000",
        "113803.747000",
        "113804.719000",
        "113805.757000",
        "113806.751000",
        "113807.740000",
        "113808.751000",
        "113809.773000",
        "113810.751000",
        "113811.743000",
        "113812.757000",
        "113813.724000",
        "113814.724000",
        "113815.741000",
        "113816.728000",
        "113817.724000",
        "113818.736000",
        "113819.764000",
        "113820.725000",
        "113821.731000",
        "113822.746000",
        "113823.744000",
        "113824.741000",
        "113825.734000",
        "113826.729000",
        "113827.726000",
        "113828.747000",
        "113829.739000",
        "113830.764000",
        "113831.727000",
        "113832.747000",
        "113833.711000",
        "113834.722000",
        "113835.781000",
        "113836.769000",
        "113837.735000",
        "113838.706000",
        "113839.755000",
        "113840.736000",
        "113841.736000",
        "113842.776000",
        "113843.751000",
        "113844.733000",
        "113845.755000",
        "113846.717000",
        "113847.746000",
        "113848.770000",
        "113849.749000",
        "113850.749000",
        "113851.731000",
        "113852.730000",
        "113853.729000",
