{
  "AcquisitionMatrixPE": 96,
  "AcquisitionNumber": 1,
  "AcquisitionTime": "13:28:0.982500",
  "BandwidthPerPixelPhaseEncode": 18.939,
  "BaseResolution": 96,
  "BodyPartExamined": "BRAIN",
  "ConsistencyInfo": "N4_VE11C_LATEST_20160120",
  "ConversionSoftware": "dcm2niix",
  "ConversionSoftwareVersion": "v1.0.20170923 (OpenJPEG build) GCC6.3.0",
  "DerivedVendorReportedEchoSpacing": 0.000550011,
  "DeviceSerialNumber": "66112",
  "DwellTime": 2.2e-06,
  "EchoTime": 0.033,
  "EchoTrainLength": 96,
  "EffectiveEchoSpacing": 0.000550011,
  "FlipAngle": 59,
  "ImageType": [
    "ORIGINAL",
    "PRIMARY",
    "FMRI",
    "NONE",
    "ND",
    "NORM",
    "MOSAIC"
  ],
  "InstitutionAddress": "Maynard_3_Hanover_NH_US_03755",
  "InstitutionName": "Dartmouth_College_-_PBS",
  "MagneticFieldStrength": 3,
  "Manufacturer": "Siemens",
  "ManufacturersModelName": "Prisma",
  "Modality": "MR",
  "MultibandAccelerationFactor": 4,
  "PercentPhaseFOV": 100,
  "PhaseEncodingDirection": "j-",
  "PhaseEncodingSteps": 96,
  "PhaseResolution": 1,
  "ProcedureStepDescription": "Gobbini_Matteo_1038_hyperface",
  "ProtocolName": "func_run-03_task-visualmemory",
  "PulseSequenceDetails": "%SiemensSeq%_ep2d_bold",
  "ReceiveCoilActiveElements": "HEA;HEP",
  "ReceiveCoilName": "Head_32",
  "ReconMatrixPE": 96,
  "RepetitionTime": 1,
  "ScanOptions": "FS",
  "ScanningSequence": "EP",
  "SequenceName": "_epfid2d1_96",
  "SequenceVariant": "SK",
  "SeriesDescription": "func_run-03_task-visualmemory",
  "SliceTiming": [
    0.735,
    0,
    0.49,
    0.0825,
    0.5725,
    0.165,
    0.655,
    0.3275,
    0.8175,
    0.41,
    0.9,
    0.245,
    0.735,
    0,
    0.49,
    0.0825,
    0.5725,
    0.165,
    0.655,
    0.3275,
    0.8175,
    0.41,
    0.9,
    0.245,
    0.735,
    0,
    0.49,
    0.0825,
    0.5725,
    0.165,
    0.655,
    0.3275,
    0.8175,
    0.41,
    0.9,
    0.245,
    0.735,
    0,
    0.49,
    0.0825,
    0.5725,
    0.165,
    0.655,
    0.3275,
    0.8175,
    0.41,
    0.9,
    0.245
  ],
  "SoftwareVersions": "syngo_MR_E11",
  "StationName": "AWP66112",
  "TotalReadoutTime": 0.0522511,
  "dcmmeta_affine": [
    [
      -2.4993081092834473,
      -0.0488617904484272,
      0.03273340314626694,
      127.24546813964844
    ],
    [
      -0.04900839179754257,
      2.4994957447052,
      -0.010913345962762833,
      -105.73026275634766
    ],
    [
      0.03251350298523903,
      0.011552009731531143,
      2.4997620582580566,
      -70.54023742675781
    ],
    [
      0.0,
      0.0,
      0.0,
      1.0
    ]
  ],
  "dcmmeta_reorient_transform": [
    [
      0.0,
      -1.0,
      0.0,
      95.0
    ],
    [
      1.0,
      0.0,
      0.0,
      0.0
    ],
    [
      0.0,
      0.0,
      1.0,
      0.0
    ],
    [
      0.0,
      0.0,
      0.0,
      1.0
    ]
  ],
  "dcmmeta_shape": [
    96,
    96,
    48,
    288
  ],
  "dcmmeta_slice_dim": 2,
  "dcmmeta_version": 0.6,
  "global": {
    "const": {
      "AccessionNumber": "A001140",
      "AcquisitionMatrix": [
        96,
        0,
        0,
        96
      ],
      "AngioFlag": "N",
      "BitsAllocated": 16,
      "BitsStored": 12,
      "BodyPartExamined": "BRAIN",
      "Columns": 672,
      "EchoNumbers": 1,
      "EchoTime": 33.0,
      "EchoTrainLength": 96,
      "FlipAngle": 59.0,
      "HighBit": 11,
      "ImageOrientationPatient": [
        0.99972324567735,
        0.01960335709741,
        0.0130054005267,
        -0.0195447168917,
        0.99979830576583,
        -0.0046208039778
      ],
      "ImagePositionPatient": [
        -828.33213857646,
        -865.69103446228,
        -75.47970660893
      ],
      "ImageType": [
        "ORIGINAL",
        "PRIMARY",
        "FMRI",
        "NONE",
        "ND",
        "NORM",
        "MOSAIC"
      ],
      "ImagedNucleus": "1H",
      "ImagingFrequency": 123.252265,
      "InPlanePhaseEncodingDirection": "COL",
      "MRAcquisitionType": "2D",
      "MagneticFieldStrength": 3.0,
      "Manufacturer": "SIEMENS",
      "ManufacturerModelName": "Prisma",
      "Modality": "MR",
      "NumberOfAverages": 1.0,
      "NumberOfPhaseEncodingSteps": 96,
      "PercentPhaseFieldOfView": 100.0,
      "PercentSampling": 100.0,
      "PerformedProcedureStepStartTime": "125856.985000",
      "PhotometricInterpretation": "MONOCHROME2",
      "PixelBandwidth": 2365.0,
      "PixelRepresentation": 0,
      "PixelSpacing": [
        2.5,
        2.5
      ],
      "PositionReferenceIndicator": "",
      "ProtocolName": "func_run-03_task-visualmemory",
      "RepetitionTime": 1000.0,
      "Rows": 672,
      "SAR": 0.07162535388037,
      "SamplesPerPixel": 1,
      "ScanOptions": "FS",
      "ScanningSequence": "EP",
      "SequenceName": "*epfid2d1_96",
      "SequenceVariant": "SK",
      "SeriesDescription": "func_run-03_task-visualmemory",
      "SeriesNumber": 22,
      "SeriesTime": "132802.298000",
      "SliceLocation": -68.405899870991,
      "SliceThickness": 2.5,
      "SmallestImagePixelValue": 0,
      "SoftwareVersions": "syngo MR E11",
      "SpacingBetweenSlices": 2.500000073378,
      "SpecificCharacterSet": "ISO_IR 100",
      "StudyID": "2",
      "StudyTime": "125856.843000",
      "TransmitCoilName": "Body",
      "VariableFlipAngleFlag": "N",
      "WindowCenterWidthExplanation": "Algo1",
      "dBdt": 0.0
    },
    "slices": {}
  },
  "time": {
    "samples": {
      "AcquisitionNumber": [
        1,
        2,
        3,
        4,
        5,
        6,
        7,
        8,
        9,
        10,
        11,
        12,
        13,
        14,
        15,
        16,
        17,
        18,
        19,
        20,
        21,
        22,
        23,
        24,
        25,
        26,
        27,
        28,
        29,
        30,
        31,
        32,
        33,
        34,
        35,
        36,
        37,
        38,
        39,
        40,
        41,
        42,
        43,
        44,
        45,
        46,
        47,
        48,
        49,
        50,
        51,
        52,
        53,
        54,
        55,
        56,
        57,
        58,
        59,
        60,
        61,
        62,
        63,
        64,
        65,
        66,
        67,
        68,
        69,
        70,
        71,
        72,
        73,
        74,
        75,
        76,
        77,
        78,
        79,
        80,
        81,
        82,
        83,
        84,
        85,
        86,
        87,
        88,
        89,
        90,
        91,
        92,
        93,
        94,
        95,
        96,
        97,
        98,
        99,
        100,
        101,
        102,
        103,
        104,
        105,
        106,
        107,
        108,
        109,
        110,
        111,
        112,
        113,
        114,
        115,
        116,
        117,
        118,
        119,
        120,
        121,
        122,
        123,
        124,
        125,
        126,
        127,
        128,
        129,
        130,
        131,
        132,
        133,
        134,
        135,
        136,
        137,
        138,
        139,
        140,
        141,
        142,
        143,
        144,
        145,
        146,
        147,
        148,
        149,
        150,
        151,
        152,
        153,
        154,
        155,
        156,
        157,
        158,
        159,
        160,
        161,
        162,
        163,
        164,
        165,
        166,
        167,
        168,
        169,
        170,
        171,
        172,
        173,
        174,
        175,
        176,
        177,
        178,
        179,
        180,
        181,
        182,
        183,
        184,
        185,
        186,
        187,
        188,
        189,
        190,
        191,
        192,
        193,
        194,
        195,
        196,
        197,
        198,
        199,
        200,
        201,
        202,
        203,
        204,
        205,
        206,
        207,
        208,
        209,
        210,
        211,
        212,
        213,
        214,
        215,
        216,
        217,
        218,
        219,
        220,
        221,
        222,
        223,
        224,
        225,
        226,
        227,
        228,
        229,
        230,
        231,
        232,
        233,
        234,
        235,
        236,
        237,
        238,
        239,
        240,
        241,
        242,
        243,
        244,
        245,
        246,
        247,
        248,
        249,
        250,
        251,
        252,
        253,
        254,
        255,
        256,
        257,
        258,
        259,
        260,
        261,
        262,
        263,
        264,
        265,
        266,
        267,
        268,
        269,
        270,
        271,
        272,
        273,
        274,
        275,
        276,
        277,
        278,
        279,
        280,
        281,
        282,
        283,
        284,
        285,
        286,
        287,
        288
      ],
      "AcquisitionTime": [
        "132800.982500",
        "132801.982500",
        "132802.982500",
        "132803.982500",
        "132804.982500",
        "132805.982500",
        "132806.982500",
        "132807.982500",
        "132808.982500",
        "132809.982500",
        "132810.982500",
        "132811.982500",
        "132812.982500",
        "132813.982500",
        "132814.982500",
        "132815.982500",
        "132816.982500",
        "132817.982500",
        "132818.982500",
        "132819.982500",
        "132820.982500",
        "132821.982500",
        "132822.982500",
        "132823.982500",
        "132824.982500",
        "132825.982500",
        "132826.982500",
        "132827.982500",
        "132828.982500",
        "132829.982500",
        "132830.982500",
        "132831.982500",
        "132832.982500",
        "132833.982500",
        "132834.982500",
        "132835.982500",
        "132836.982500",
        "132837.982500",
        "132838.982500",
        "132839.982500",
        "132840.982500",
        "132841.982500",
        "132842.982500",
        "132843.982500",
        "132844.982500",
        "132845.982500",
        "132846.982500",
        "132847.982500",
        "132848.982500",
        "132849.982500",
        "132850.982500",
        "132851.982500",
        "132852.982500",
        "132853.982500",
        "132854.982500",
        "132855.982500",
        "132856.982500",
        "132857.982500",
        "132858.982500",
        "132859.982500",
        "132900.982500",
        "132901.982500",
        "132902.982500",
        "132903.982500",
        "132904.982500",
        "132905.982500",
        "132906.982500",
        "132907.982500",
        "132908.982500",
        "132909.982500",
        "132910.982500",
        "132911.982500",
        "132912.982500",
        "132913.982500",
        "132914.982500",
        "132915.982500",
        "132916.982500",
        "132917.982500",
        "132918.982500",
        "132919.982500",
        "132920.982500",
        "132921.982500",
        "132922.982500",
        "132923.982500",
        "132924.982500",
        "132925.982500",
        "132926.982500",
        "132927.982500",
        "132928.982500",
        "132929.982500",
        "132930.982500",
        "132931.982500",
        "132932.982500",
        "132933.982500",
        "132934.982500",
        "132935.982500",
        "132936.982500",
        "132937.982500",
        "132938.982500",
        "132939.982500",
        "132940.982500",
        "132941.982500",
        "132942.982500",
        "132943.982500",
        "132944.982500",
        "132945.982500",
        "132946.982500",
        "132947.982500",
        "132948.982500",
        "132949.982500",
        "132950.982500",
        "132951.982500",
        "132952.982500",
        "132953.982500",
        "132954.982500",
        "132955.982500",
        "132956.982500",
        "132957.982500",
        "132958.982500",
        "132959.982500",
        "133000.982500",
        "133001.982500",
        "133002.982500",
        "133003.982500",
        "133004.982500",
        "133005.982500",
        "133006.982500",
        "133007.982500",
        "133008.982500",
        "133009.982500",
        "133010.982500",
        "133011.982500",
        "133012.982500",
        "133013.982500",
        "133014.982500",
        "133015.982500",
        "133016.982500",
        "133017.982500",
        "133018.982500",
        "133019.982500",
        "133020.982500",
        "133021.982500",
        "133022.982500",
        "133023.982500",
        "133024.982500",
        "133025.982500",
        "133026.982500",
        "133027.982500",
        "133028.982500",
        "133029.982500",
        "133030.982500",
        "133031.982500",
        "133032.982500",
        "133033.982500",
        "133034.982500",
        "133035.982500",
        "133036.982500",
        "133037.982500",
        "133038.982500",
        "133039.982500",
        "133040.982500",
        "133041.982500",
        "133042.982500",
        "133043.982500",
        "133044.982500",
        "133045.982500",
        "133046.982500",
        "133047.982500",
        "133048.982500",
        "133049.982500",
        "133050.982500",
        "133051.982500",
        "133052.982500",
        "133053.982500",
        "133054.982500",
        "133055.982500",
        "133056.982500",
        "133057.982500",
        "133058.982500",
        "133059.982500",
        "133100.982500",
        "133101.982500",
        "133102.982500",
        "133103.982500",
        "133104.982500",
        "133105.982500",
        "133106.982500",
        "133107.982500",
        "133108.982500",
        "133109.982500",
        "133110.982500",
        "133111.982500",
        "133112.982500",
        "133113.982500",
        "133114.982500",
        "133115.982500",
        "133116.982500",
        "133117.982500",
        "133118.982500",
        "133119.982500",
        "133120.982500",
        "133121.982500",
        "133122.982500",
        "133123.982500",
        "133124.982500",
        "133125.982500",
        "133126.982500",
        "133127.982500",
        "133128.982500",
        "133129.982500",
        "133130.982500",
        "133131.982500",
        "133132.982500",
        "133133.982500",
        "133134.982500",
        "133135.982500",
        "133136.982500",
        "133137.982500",
        "133138.982500",
        "133139.982500",
        "133140.982500",
        "133141.982500",
        "133142.982500",
        "133143.982500",
        "133144.982500",
        "133145.982500",
        "133146.982500",
        "133147.982500",
        "133148.982500",
        "133149.982500",
        "133150.982500",
        "133151.982500",
        "133152.982500",
        "133153.982500",
        "133154.982500",
        "133155.982500",
        "133156.982500",
        "133157.982500",
        "133158.982500",
        "133159.982500",
        "133200.982500",
        "133201.982500",
        "133202.982500",
        "133203.982500",
        "133204.982500",
        "133205.982500",
        "133206.982500",
        "133207.982500",
        "133208.982500",
        "133209.982500",
        "133210.982500",
        "133211.982500",
        "133212.982500",
        "133213.982500",
        "133214.982500",
        "133215.982500",
        "133216.982500",
        "133217.982500",
        "133218.982500",
        "133219.982500",
        "133220.982500",
        "133221.982500",
        "133222.982500",
        "133223.982500",
        "133224.982500",
        "133225.982500",
        "133226.982500",
        "133227.982500",
        "133228.982500",
        "133229.982500",
        "133230.982500",
        "133231.982500",
        "133232.982500",
        "133233.982500",
        "133234.982500",
        "133235.982500",
        "133236.982500",
        "133237.982500",
        "133238.982500",
        "133239.982500",
        "133240.982500",
        "133241.982500",
        "133242.982500",
        "133243.982500",
        "133244.982500",
        "133245.982500",
        "133246.982500",
        "133247.982500"
      ],
      "ContentTime": [
        "132802.302000",
        "132803.124000",
        "132804.113000",
        "132805.108000",
        "132806.157000",
        "132807.097000",
        "132808.093000",
        "132809.133000",
        "132810.120000",
        "132811.121000",
        "132812.100000",
        "132813.085000",
        "132814.101000",
        "132815.085000",
        "132816.123000",
        "132817.101000",
        "132818.098000",
        "132819.146000",
        "132820.103000",
        "132821.139000",
        "132822.133000",
        "132823.115000",
        "132824.122000",
        "132825.113000",
        "132826.140000",
        "132827.168000",
        "132828.118000",
        "132829.130000",
        "132830.095000",
        "132831.124000",
        "132832.126000",
        "132833.087000",
        "132834.151000",
        "132835.156000",
        "132836.115000",
        "132837.133000",
        "132838.103000",
        "132839.105000",
        "132840.139000",
        "132841.122000",
        "132842.105000",
        "132843.098000",
        "132844.128000",
        "132845.113000",
        "132846.093000",
        "132847.144000",
        "132848.115000",
        "132849.118000",
        "132850.095000",
        "132851.109000",
        "132852.109000",
        "132853.099000",
        "132854.112000",
        "132855.118000",
        "132856.112000",
        "132857.118000",
        "132858.132000",
        "132859.127000",
        "132900.118000",
        "132901.114000",
        "132902.115000",
        "132903.092000",
        "132904.122000",
        "132905.113000",
        "132906.104000",
        "132907.108000",
        "132908.127000",
        "132909.145000",
        "132910.127000",
        "132911.136000",
        "132912.128000",
        "132913.097000",
        "132914.165000",
        "132915.123000",
        "132916.109000",
        "132917.121000",
        "132918.098000",
        "132919.110000",
        "132920.099000",
        "132921.134000",
        "132922.095000",
        "132923.107000",
        "132924.117000",
        "132925.093000",
        "132926.098000",
        "132927.124000",
        "132928.118000",
        "132929.125000",
        "132930.110000",
        "132931.106000",
        "132932.115000",
        "132933.116000",
        "132934.111000",
        "132935.100000",
        "132936.136000",
        "132937.120000",
        "132938.100000",
        "132939.115000",
        "132940.132000",
        "132941.126000",
        "132942.100000",
        "132943.143000",
        "132944.122000",
        "132945.122000",
        "132946.164000",
        "132947.180000",
        "132948.115000",
        "132949.069000",
        "132950.110000",
        "132951.089000",
        "132952.113000",
        "132953.160000",
        "132954.129000",
        "132955.123000",
        "132956.127000",
        "132957.171000",
        "132958.106000",
        "132959.117000",
        "133000.119000",
        "133001.140000",
        "133002.147000",
        "133003.148000",
        "133004.120000",
        "133005.093000",
        "133006.118000",
        "133007.122000",
        "133008.108000",
        "133009.123000",
        "133010.119000",
        "133011.168000",
        "133012.138000",
        "133013.158000",
        "133014.144000",
        "133015.133000",
        "133016.116000",
        "133017.153000",
        "133018.125000",
        "133019.117000",
        "133020.136000",
        "133021.127000",
        "133022.102000",
        "133023.143000",
        "133024.092000",
        "133025.110000",
        "133026.101000",
        "133027.116000",
        "133028.129000",
        "133029.119000",
        "133030.113000",
        "133031.158000",
        "133032.116000",
        "133033.117000",
        "133034.111000",
        "133035.120000",
        "133036.115000",
        "133037.094000",
        "133038.134000",
        "133039.129000",
        "133040.142000",
        "133041.131000",
        "133042.131000",
        "133043.122000",
        "133044.100000",
        "133045.142000",
        "133046.108000",
        "133047.109000",
        "133048.128000",
        "133049.126000",
        "133050.109000",
        "133051.126000",
        "133052.099000",
        "133053.147000",
        "133054.139000",
        "133055.145000",
        "133056.102000",
        "133057.147000",
        "133058.170000",
        "133059.123000",
        "133100.106000",
        "133101.124000",
        "133102.144000",
        "133103.120000",
        "133104.103000",
        "133105.171000",
        "133106.108000",
        "133107.124000",
        "133108.145000",
        "133109.100000",
        "133110.126000",
        "133111.093000",
        "133112.122000",
        "133113.085000",
        "133114.094000",
        "133115.126000",
        "133116.107000",
        "133117.114000",
        "133118.098000",
        "133119.102000",
        "133120.102000",
        "133121.101000",
        "133122.116000",
        "133123.110000",
        "133124.106000",
        "133125.154000",
        "133126.117000",
        "133127.115000",
        "133128.123000",
        "133129.124000",
        "133130.103000",
        "133131.104000",
        "133132.092000",
        "133133.144000",
        "133134.113000",
        "133135.133000",
        "133136.090000",
        "133137.099000",
        "133138.115000",
        "133139.124000",
        "133140.154000",
        "133141.136000",
        "133142.125000",
        "133143.117000",
        "133144.122000",
        "133145.126000",
        "133146.108000",
        "133147.128000",
        "133148.119000",
        "133149.174000",
        "133150.104000",
        "133151.113000",
        "133152.121000",
        "133153.121000",
        "133154.117000",
        "133155.129000",
        "133156.123000",
        "133157.083000",
        "133158.168000",
        "133159.109000",
        "133200.161000",
        "133201.130000",
        "133202.116000",
        "133203.108000",
        "133204.109000",
        "133205.115000",
        "133206.114000",
        "133207.099000",
        "133208.108000",
        "133209.105000",
        "133210.112000",
        "133211.141000",
        "133212.131000",
        "133213.112000",
        "133214.115000",
        "133215.116000",
        "133216.144000",
        "133217.100000",
        "133218.098000",
        "133219.103000",
        "133220.109000",
        "133221.113000",
        "133222.141000",
        "133223.122000",
        "133224.108000",
        "133225.119000",
        "133226.113000",
        "133227.091000",
        "133228.115000",
        "133229.123000",
        "133230.096000",
        "133231.117000",
        "133232.109000",
        "133233.102000",
        "133234.113000",
        "133235.075000",
        "133236.111000",
        "133237.115000",
        "133238.111000",
        "133239.111000",
        "133240.086000",
        "133241.123000",
        "133242.107000",
        "133243.111000",
        "133244.102000",
        "133245.111000",
        "133246.130000",
        "133247.114000",
        "133248.089000",
        "133249.157000"
      ],
      "InstanceCreationTime": [
        "132802.302000",
        "132803.124000",
        "132804.113000",
        "132805.108000",
        "132806.157000",
        "132807.097000",
        "132808.093000",
        "132809.133000",
        "132810.120000",
        "132811.121000",
        "132812.100000",
        "132813.085000",
        "132814.101000",
        "132815.085000",
        "132816.123000",
        "132817.101000",
        "132818.098000",
        "132819.146000",
        "132820.103000",
        "132821.139000",
        "132822.133000",
        "132823.115000",
        "132824.122000",
        "132825.113000",
        "132826.140000",
        "132827.168000",
        "132828.118000",
        "132829.130000",
        "132830.095000",
        "132831.124000",
        "132832.126000",
        "132833.087000",
        "132834.151000",
        "132835.156000",
        "132836.115000",
        "132837.133000",
        "132838.103000",
        "132839.105000",
        "132840.139000",
        "132841.122000",
        "132842.105000",
        "132843.098000",
        "132844.128000",
        "132845.113000",
        "132846.093000",
        "132847.144000",
        "132848.115000",
        "132849.118000",
        "132850.095000",
        "132851.109000",
        "132852.109000",
        "132853.099000",
        "132854.112000",
        "132855.118000",
        "132856.112000",
        "132857.118000",
        "132858.132000",
        "132859.127000",
        "132900.118000",
        "132901.114000",
        "132902.115000",
        "132903.092000",
        "132904.122000",
        "132905.113000",
        "132906.104000",
        "132907.108000",
        "132908.127000",
        "132909.145000",
        "132910.127000",
        "132911.136000",
        "132912.128000",
        "132913.097000",
        "132914.165000",
        "132915.123000",
        "132916.109000",
        "132917.121000",
        "132918.098000",
        "132919.110000",
        "132920.099000",
        "132921.134000",
        "132922.095000",
        "132923.107000",
        "132924.117000",
        "132925.093000",
        "132926.098000",
        "132927.124000",
        "132928.118000",
        "132929.125000",
        "132930.110000",
        "132931.106000",
        "132932.115000",
        "132933.116000",
        "132934.111000",
        "132935.100000",
        "132936.136000",
        "132937.120000",
        "132938.100000",
        "132939.115000",
        "132940.132000",
        "132941.126000",
        "132942.100000",
        "132943.143000",
        "132944.122000",
        "132945.122000",
        "132946.164000",
        "132947.180000",
        "132948.115000",
        "132949.069000",
        "132950.110000",
        "132951.089000",
        "132952.113000",
        "132953.160000",
        "132954.129000",
        "132955.123000",
        "132956.127000",
        "132957.171000",
        "132958.106000",
        "132959.117000",
        "133000.119000",
        "133001.140000",
        "133002.147000",
        "133003.148000",
        "133004.120000",
        "133005.093000",
        "133006.118000",
        "133007.122000",
        "133008.108000",
        "133009.123000",
        "133010.119000",
        "133011.168000",
        "133012.138000",
        "133013.158000",
        "133014.144000",
        "133015.133000",
        "133016.116000",
        "133017.153000",
        "133018.125000",
        "133019.117000",
        "133020.136000",
        "133021.127000",
        "133022.102000",
        "133023.143000",
        "133024.092000",
        "133025.110000",
        "133026.101000",
        "133027.116000",
        "133028.129000",
        "133029.119000",
        "133030.113000",
        "133031.158000",
        "133032.116000",
        "133033.117000",
        "133034.111000",
        "133035.120000",
        "133036.115000",
        "133037.094000",
        "133038.134000",
        "133039.129000",
        "133040.142000",
        "133041.131000",
        "133042.131000",
        "133043.122000",
        "133044.100000",
        "133045.142000",
        "133046.108000",
        "133047.109000",
        "133048.128000",
        "133049.126000",
        "133050.109000",
        "133051.126000",
        "133052.099000",
        "133053.147000",
        "133054.139000",
        "133055.145000",
        "133056.102000",
        "133057.147000",
        "133058.170000",
        "133059.123000",
        "133100.106000",
        "133101.124000",
        "133102.144000",
        "133103.120000",
        "133104.103000",
        "133105.171000",
        "133106.108000",
        "133107.124000",
        "133108.145000",
        "133109.100000",
        "133110.126000",
        "133111.093000",
        "133112.122000",
        "133113.085000",
        "133114.094000",
        "133115.126000",
        "133116.107000",
        "133117.114000",
        "133118.098000",
        "133119.102000",
        "133120.102000",
        "133121.101000",
        "133122.116000",
        "133123.110000",
        "133124.106000",
        "133125.154000",
        "133126.117000",
        "133127.115000",
        "133128.123000",
        "133129.124000",
        "133130.103000",
        "133131.104000",
        "133132.092000",
        "133133.144000",
        "133134.113000",
        "133135.133000",
        "133136.090000",
        "133137.099000",
        "133138.115000",
        "133139.124000",
        "133140.154000",
        "133141.136000",
        "133142.125000",
        "133143.117000",
        "133144.122000",
        "133145.126000",
        "133146.108000",
        "133147.128000",
        "133148.119000",
        "133149.174000",
        "133150.104000",
        "133151.113000",
        "133152.121000",
        "133153.121000",
        "133154.117000",
        "133155.129000",
        "133156.123000",
        "133157.083000",
        "133158.168000",
        "133159.109000",
        "133200.161000",
        "133201.130000",
        "133202.116000",
        "133203.108000",
        "133204.109000",
        "133205.115000",
        "133206.114000",
        "133207.099000",
        "133208.108000",
        "133209.105000",
        "133210.112000",
        "133211.141000",
        "133212.131000",
        "133213.112000",
        "133214.115000",
        "133215.116000",
        "133216.144000",
        "133217.100000",
