{
  "AcquisitionMatrixPE": 120,
  "AcquisitionNumber": 1,
  "AcquisitionTime": "12:03:17.600000",
  "BandwidthPerPixelPhaseEncode": 13.889,
  "BaseResolution": 120,
  "BodyPartExamined": "BRAIN",
  "ConsistencyInfo": "N4_VE11C_LATEST_20160120",
  "ConversionSoftware": "dcm2niix",
  "ConversionSoftwareVersion": "v1.0.20171215 (OpenJPEG build) GCC6.3.0",
  "DerivedVendorReportedEchoSpacing": 0.000599995,
  "DeviceSerialNumber": "66112",
  "DwellTime": 2e-06,
  "EchoTime": 0.103,
  "EchoTrainLength": 120,
  "EffectiveEchoSpacing": 0.000599995,
  "FlipAngle": 90,
  "ImageOrientationPatientDICOM": [0.997541, 0.0419104, 0.0561695, -0.0367525, 0.995272, -0.0899078],
  "ImageType": [
    "ORIGINAL",
    "PRIMARY",
    "DIFFUSION",
    "NONE",
    "ND",
    "NORM",
    "MOSAIC"
],
  "InPlanePhaseEncodingDirectionDICOM": "COL",
  "InstitutionAddress": "Maynard_3_Hanover_NH_US_03755",
  "InstitutionName": "Dartmouth_College_-_PBS",
  "InstitutionalDepartmentName": "Department",
  "MRAcquisitionType": "2D",
  "MagneticFieldStrength": 3,
  "Manufacturer": "Siemens",
  "ManufacturersModelName": "Prisma",
  "Modality": "MR",
  "MultibandAccelerationFactor": 4,
  "PartialFourier": 1,
  "PatientPosition": "HFS",
  "PercentPhaseFOV": 100,
  "PhaseEncodingDirection": "j-",
  "PhaseEncodingSteps": 120,
  "PhaseResolution": 1,
  "PixelBandwidth": 2085,
  "ProcedureStepDescription": "Gobbini_Matteo_1038_hyperface",
  "ProtocolName": "dwi_acq-2.0mmXhardi96Xsms4X11b0",
  "PulseSequenceDetails": "%SiemensSeq%_ep2d_diff",
  "ReceiveCoilActiveElements": "HEA;HEP",
  "ReceiveCoilName": "Head_32",
  "ReconMatrixPE": 120,
  "RepetitionTime": 2.6,
  "SAR": 0.312104,
  "ScanOptions": "FS",
  "ScanningSequence": "EP",
  "SequenceName": "_ep_b0",
  "SequenceVariant": "SK_SP",
  "SeriesDescription": "dwi_acq-2.0mmXhardi96Xsms4X11b0",
  "SeriesNumber": 66,
  "ShimSetting": [4149, -7690, -7411, 670, 50, -228, -20, 26],
  "SliceThickness": 2,
  "SliceTiming": [1.935, 0, 1.29, 0.16, 1.45, 0.3225, 1.6125, 0.4825, 1.7725, 0.805, 2.095, 0.9675, 2.2575, 1.1275, 2.4175, 0.645, 1.935, 0, 1.29, 0.16, 1.45, 0.3225, 1.6125, 0.4825, 1.7725, 0.805, 2.095, 0.9675, 2.2575, 1.1275, 2.4175, 0.645, 1.935, 0, 1.29, 0.16, 1.45, 0.3225, 1.6125, 0.4825, 1.7725, 0.805, 2.095, 0.9675, 2.2575, 1.1275, 2.4175, 0.645, 1.935, 0, 1.29, 0.16, 1.45, 0.3225, 1.6125, 0.4825, 1.7725, 0.805, 2.095, 0.9675, 2.2575, 1.1275, 2.4175, 0.645],
  "SoftwareVersions": "syngo_MR_E11",
  "SpacingBetweenSlices": 2,
  "StationName": "AWP66112",
  "TotalReadoutTime": 0.0713994,
  "TxRefAmp": 244.569,
  "dcmmeta_affine": [
    [-1.9950824975967407, -0.07350505888462067, 0.119344063103199, 123.56241607666016],
    [-0.08382081240415573, 1.9905434846878052, -0.17524468898773193, -94.99002075195312],
    [0.112339086830616, 0.17981556057929993, 1.9887298345565796, -127.53622436523438],
    [0.0, 0.0, 0.0, 1.0]
],
  "dcmmeta_reorient_transform": [
    [0.0, -1.0, 0.0, 119.0],
    [1.0, 0.0, 0.0, 0.0],
    [0.0, 0.0, 1.0, 0.0],
    [0.0, 0.0, 0.0, 1.0]
],
  "dcmmeta_shape": [120, 120, 64, 107],
  "dcmmeta_slice_dim": 2,
  "dcmmeta_version": 0.6,
  "global": {
    "const": {
      "AccessionNumber": "A001333",
      "AcquisitionMatrix": [120, 0, 0, 120],
      "AngioFlag": "N",
      "BitsAllocated": 16,
      "BitsStored": 12,
      "BodyPartExamined": "BRAIN",
      "Columns": 960,
      "EchoNumbers": 1,
      "EchoTime": 103.0,
      "EchoTrainLength": 120,
      "FlipAngle": 90.0,
      "HighBit": 11,
      "ImageOrientationPatient": [0.997541227356, 0.04191040590784, 0.05616954336401, -0.036752529813, 0.99527174297112, -0.0899077816186],
      "ImagePositionPatient": [-921.87782169435, -1013.1176591732, -77.798051224333],
      "ImageType": [
        "ORIGINAL",
        "PRIMARY",
        "DIFFUSION",
        "NONE",
        "ND",
        "NORM",
        "MOSAIC"
],
      "ImagedNucleus": "1H",
      "ImagingFrequency": 123.252335,
      "InPlanePhaseEncodingDirection": "COL",
      "MRAcquisitionType": "2D",
      "MagneticFieldStrength": 3.0,
      "Manufacturer": "SIEMENS",
      "ManufacturerModelName": "Prisma",
      "Modality": "MR",
      "NumberOfAverages": 1.0,
      "NumberOfPhaseEncodingSteps": 120,
      "PercentPhaseFieldOfView": 100.0,
      "PercentSampling": 100.0,
      "PerformedProcedureStepStartTime": "104616.171000",
      "PhotometricInterpretation": "MONOCHROME2",
      "PixelBandwidth": 2085.0,
      "PixelRepresentation": 0,
      "PixelSpacing": [2.0, 2.0],
      "PositionReferenceIndicator": "",
      "ProtocolName": "dwi_acq-2.0mmXhardi96Xsms4X11b0",
      "RepetitionTime": 2600.0,
      "Rows": 960,
      "SAR": 0.31210353949184,
      "SamplesPerPixel": 1,
      "ScanOptions": "FS",
      "ScanningSequence": "EP",
      "SequenceVariant": [
        "SK",
        "SP"
],
      "SeriesDescription": "dwi_acq-2.0mmXhardi96Xsms4X11b0",
      "SeriesNumber": 66,
      "SeriesTime": "120414.341000",
      "SliceLocation": -111.12107633564,
      "SliceThickness": 2.0,
      "SmallestImagePixelValue": 0,
      "SoftwareVersions": "syngo MR E11",
      "SpacingBetweenSlices": 2.0000000067109,
      "SpecificCharacterSet": "ISO_IR 100",
      "StudyID": "2",
      "StudyTime": "104616.033000",
      "TransmitCoilName": "Body",
      "VariableFlipAngleFlag": "N",
      "WindowCenterWidthExplanation": "Algo1",
      "dBdt": 0.0},
    "slices": {}
  },
  "time": {
    "samples": {
      "AcquisitionNumber": [1, 2, 3, 4, 5, 6, 7, 8, 9, 10, 11, 12, 13, 14, 15, 16, 17, 18, 19, 20, 21, 22, 23, 24, 25, 26, 27, 28, 29, 30, 31, 32, 33, 34, 35, 36, 37, 38, 39, 40, 41, 42, 43, 44, 45, 46, 47, 48, 49, 50, 51, 52, 53, 54, 55, 56, 57, 58, 59, 60, 61, 62, 63, 64, 65, 66, 67, 68, 69, 70, 71, 72, 73, 74, 75, 76, 77, 78, 79, 80, 81, 82, 83, 84, 85, 86, 87, 88, 89, 90, 91, 92, 93, 94, 95, 96, 97, 98, 99, 100, 101, 102, 103, 104, 105, 106, 107],
      "AcquisitionTime": ["120317.600000", "120320.200000", "120322.800000", "120325.400000", "120328.000000", "120330.600000", "120333.200000", "120335.800000", "120338.400000", "120341.000000", "120343.600000", "120346.200000", "120348.800000", "120351.400000", "120354.000000", "120356.600000", "120359.200000", "120401.800000", "120404.400000", "120407.000000", "120409.600000", "120412.200000", "120414.800000", "120417.400000", "120420.000000", "120422.600000", "120425.200000", "120427.800000", "120430.400000", "120433.000000", "120435.600000", "120438.200000", "120440.800000", "120443.400000", "120446.000000", "120448.600000", "120451.200000", "120453.800000", "120456.400000", "120459.000000", "120501.600000", "120504.200000", "120506.800000", "120509.400000", "120512.000000", "120514.600000", "120517.200000", "120519.800000", "120522.400000", "120525.000000", "120527.600000", "120530.200000", "120532.800000", "120535.400000", "120538.000000", "120540.600000", "120543.200000", "120545.800000", "120548.400000", "120551.000000", "120553.600000", "120556.200000", "120558.800000", "120601.400000", "120604.000000", "120606.600000", "120609.200000", "120611.800000", "120614.400000", "120617.000000", "120619.600000", "120622.200000", "120624.800000", "120627.400000", "120630.000000", "120632.600000", "120635.200000", "120637.800000", "120640.400000", "120643.000000", "120645.600000", "120648.200000", "120650.800000", "120653.400000", "120656.000000", "120658.600000", "120701.200000", "120703.800000", "120706.400000", "120709.000000", "120711.600000", "120714.200000", "120716.800000", "120719.400000", "120722.000000", "120724.600000", "120727.200000", "120729.800000", "120732.400000", "120735.000000", "120737.600000", "120740.200000", "120742.800000", "120745.400000", "120748.000000", "120750.600000", "120753.200000"],
      "ContentTime": ["120414.345000", "120414.348000", "120414.358000", "120414.361000", "120414.365000", "120414.368000", "120414.371000", "120414.374000", "120414.377000", "120414.380000", "120414.383000", "120414.386000", "120414.392000", "120414.395000", "120414.398000", "120414.408000", "120414.412000", "120414.415000", "120414.418000", "120414.421000", "120414.424000", "120414.427000", "120454.341000", "120454.345000", "120454.348000", "120454.351000", "120454.354000", "120454.357000", "120454.360000", "120454.364000", "120454.367000", "120454.370000", "120454.373000", "120454.376000", "120454.379000", "120454.382000", "120454.385000", "120554.341000", "120554.345000", "120554.348000", "120554.351000", "120554.354000", "120554.357000", "120554.361000", "120554.364000", "120554.367000", "120554.370000", "120554.373000", "120554.376000", "120554.379000", "120554.383000", "120554.386000", "120554.389000", "120554.392000", "120554.395000", "120554.398000", "120554.401000", "120554.405000", "120554.408000", "120554.411000", "120654.340000", "120654.344000", "120654.347000", "120654.351000", "120654.354000", "120654.357000", "120654.360000", "120654.363000", "120654.366000", "120654.370000", "120654.373000", "120654.376000", "120654.379000", "120654.382000", "120654.386000", "120654.389000", "120654.409000", "120654.413000", "120654.416000", "120654.419000", "120654.422000", "120654.426000", "120654.429000", "120754.341000", "120754.345000", "120754.348000", "120754.351000", "120754.354000", "120754.357000", "120754.360000", "120754.363000", "120754.366000", "120754.369000", "120754.373000", "120754.376000", "120754.379000", "120754.382000", "120754.385000", "120754.388000", "120754.391000", "120754.395000", "120754.398000", "120754.402000", "120754.405000", "120754.408000", "120754.411000", "120754.636000"],
      "InstanceCreationTime": ["120414.345000", "120414.348000", "120414.358000", "120414.361000", "120414.365000", "120414.368000", "120414.371000", "120414.374000", "120414.377000", "120414.380000", "120414.383000", "120414.386000", "120414.392000", "120414.395000", "120414.398000", "120414.408000", "120414.412000", "120414.415000", "120414.418000", "120414.421000", "120414.424000", "120414.427000", "120454.341000", "120454.345000", "120454.348000", "120454.351000", "120454.354000", "120454.357000", "120454.360000", "120454.364000", "120454.367000", "120454.370000", "120454.373000", "120454.376000", "120454.379000", "120454.382000", "120454.385000", "120554.341000", "120554.345000", "120554.348000", "120554.351000", "120554.354000", "120554.357000", "120554.361000", "120554.364000", "120554.367000", "120554.370000", "120554.373000", "120554.376000", "120554.379000", "120554.383000", "120554.386000", "120554.389000", "120554.392000", "120554.395000", "120554.398000", "120554.401000", "120554.405000", "120554.408000", "120554.411000", "120654.340000", "120654.344000", "120654.347000", "120654.351000", "120654.354000", "120654.357000", "120654.360000", "120654.363000", "120654.366000", "120654.370000", "120654.373000", "120654.376000", "120654.379000", "120654.382000", "120654.386000", "120654.389000", "120654.409000", "120654.413000", "120654.416000", "120654.419000", "120654.422000", "120654.426000", "120654.429000", "120754.341000", "120754.345000", "120754.348000", "120754.351000", "120754.354000", "120754.357000", "120754.360000", "120754.363000", "120754.366000", "120754.369000", "120754.373000", "120754.376000", "120754.379000", "120754.382000", "120754.385000", "120754.388000", "120754.391000", "120754.395000", "120754.398000", "120754.402000", "120754.405000", "120754.408000", "120754.411000", "120754.636000"],
      "InstanceNumber": [1, 2, 3, 4, 5, 6, 7, 8, 9, 10, 11, 12, 13, 14, 15, 16, 17, 18, 19, 20, 21, 22, 23, 24, 25, 26, 27, 28, 29, 30, 31, 32, 33, 34, 35, 36, 37, 38, 39, 40, 41, 42, 43, 44, 45, 46, 47, 48, 49, 50, 51, 52, 53, 54, 55, 56, 57, 58, 59, 60, 61, 62, 63, 64, 65, 66, 67, 68, 69, 70, 71, 72, 73, 74, 75, 76, 77, 78, 79, 80, 81, 82, 83, 84, 85, 86, 87, 88, 89, 90, 91, 92, 93, 94, 95, 96, 97, 98, 99, 100, 101, 102, 103, 104, 105, 106, 107],
      "LargestImagePixelValue": [2434, 2370, 446, 421, 449, 402, 407, 455, 408, 406, 419, 2076, 444, 479, 426, 422, 409, 426, 430, 444, 403, 409, 2296, 411, 424, 416, 421, 374, 470, 404, 407, 424, 425, 2115, 454, 448, 436, 431, 423, 437, 415, 403, 424, 418, 2395, 456, 444, 450, 469, 412, 457, 463, 435, 414, 417, 1976, 459, 418, 449, 410, 407, 450, 440, 445, 441, 416, 2448, 445, 431, 456, 466, 395, 422, 421, 422, 421, 464, 2357, 434, 381, 444, 385, 474, 447, 388, 386, 419, 2214, 452, 381, 445, 439, 426, 461, 431, 444, 473, 2171, 409, 424, 412, 442, 419, 435, 429, 388, 423],
      "SequenceName": [
        "*ep_b0",
        "*ep_b0",
        "*ep_b1000#2",
        "*ep_b1000#3",
        "*ep_b1000#4",
        "*ep_b1000#5",
        "*ep_b1000#6",
        "*ep_b1000#7",
        "*ep_b1000#8",
        "*ep_b1000#9",
        "*ep_b1000#10",
        "*ep_b0",
        "*ep_b1000#12",
        "*ep_b1000#13",
        "*ep_b1000#14",
        "*ep_b1000#15",
        "*ep_b1000#16",
        "*ep_b1000#17",
        "*ep_b1000#18",
        "*ep_b1000#19",
        "*ep_b1000#20",
        "*ep_b1000#21",
        "*ep_b0",
        "*ep_b1000#23",
        "*ep_b1000#24",
        "*ep_b1000#25",
        "*ep_b1000#26",
        "*ep_b1000#27",
        "*ep_b1000#28",
        "*ep_b1000#29",
        "*ep_b1000#30",
        "*ep_b1000#31",
        "*ep_b1000#32",
        "*ep_b0",
        "*ep_b1000#34",
        "*ep_b1000#35",
        "*ep_b1000#36",
        "*ep_b1000#37",
        "*ep_b1000#38",
        "*ep_b1000#39",
        "*ep_b1000#40",
        "*ep_b1000#41",
        "*ep_b1000#42",
        "*ep_b1000#43",
        "*ep_b0",
        "*ep_b1000#45",
        "*ep_b1000#46",
        "*ep_b1000#47",
        "*ep_b1000#48",
        "*ep_b1000#49",
        "*ep_b1000#50",
        "*ep_b1000#51",
        "*ep_b1000#52",
        "*ep_b1000#53",
        "*ep_b1000#54",
        "*ep_b0",
        "*ep_b1000#56",
        "*ep_b1000#57",
        "*ep_b1000#58",
        "*ep_b1000#59",
        "*ep_b1000#60",
        "*ep_b1000#61",
        "*ep_b1000#62",
        "*ep_b1000#63",
        "*ep_b1000#64",
        "*ep_b1000#65",
        "*ep_b0",
        "*ep_b1000#67",
        "*ep_b1000#68",
        "*ep_b1000#69",
        "*ep_b1000#70",
        "*ep_b1000#71",
        "*ep_b1000#72",
        "*ep_b1000#73",
        "*ep_b1000#74",
        "*ep_b1000#75",
        "*ep_b1000#76",
        "*ep_b0",
        "*ep_b1000#78",
        "*ep_b1000#79",
        "*ep_b1000#80",
        "*ep_b1000#81",
        "*ep_b1000#82",
        "*ep_b1000#83",
        "*ep_b1000#84",
        "*ep_b1000#85",
        "*ep_b1000#86",
        "*ep_b0",
        "*ep_b1000#88",
        "*ep_b1000#89",
        "*ep_b1000#90",
        "*ep_b1000#91",
        "*ep_b1000#92",
        "*ep_b1000#93",
        "*ep_b1000#94",
        "*ep_b1000#95",
        "*ep_b1000#96",
        "*ep_b0",
        "*ep_b1000#98",
        "*ep_b1000#99",
        "*ep_b1000#100",
        "*ep_b1000#101",
        "*ep_b1000#102",
        "*ep_b1000#103",
        "*ep_b1000#104",
        "*ep_b1000#105",
        "*ep_b1000#106"
],
      "WindowCenter": [251.0, 245.0, 92.0, 95.0, 93.0, 94.0, 93.0, 93.0, 94.0, 91.0, 94.0, 228.0, 94.0, 93.0, 92.0, 94.0, 94.0, 92.0, 94.0, 95.0, 91.0, 93.0, 239.0, 93.0, 95.0, 92.0, 93.0, 93.0, 92.0, 93.0, 92.0, 93.0, 95.0, 229.0, 94.0, 93.0, 92.0, 95.0, 93.0, 94.0, 93.0, 93.0, 92.0, 94.0, 245.0, 93.0, 93.0, 95.0, 93.0, 93.0, 93.0, 93.0, 93.0, 94.0, 94.0, 226.0, 94.0, 92.0, 94.0, 92.0, 95.0, 94.0, 93.0, 93.0, 93.0, 93.0, 248.0, 93.0, 95.0, 94.0, 93.0, 92.0, 93.0, 94.0, 93.0, 94.0, 93.0, 243.0, 94.0, 92.0, 94.0, 92.0, 94.0, 92.0, 93.0, 93.0, 92.0, 235.0, 93.0, 93.0, 94.0, 94.0, 93.0, 92.0, 95.0, 93.0, 94.0, 232.0, 93.0, 93.0, 93.0, 94.0, 94.0, 94.0, 92.0, 93.0, 92.0],
      "WindowWidth": [576.0, 565.0, 236.0, 243.0, 239.0, 240.0, 238.0, 239.0, 240.0, 234.0, 241.0, 542.0, 240.0, 239.0, 236.0, 241.0, 241.0, 236.0, 240.0, 242.0, 234.0, 239.0, 556.0, 238.0, 242.0, 236.0, 239.0, 239.0, 237.0, 239.0, 236.0, 238.0, 243.0, 541.0, 240.0, 239.0, 236.0, 242.0, 238.0, 240.0, 240.0, 239.0, 236.0, 240.0, 563.0, 238.0, 238.0, 242.0, 238.0, 238.0, 238.0, 239.0, 238.0, 241.0, 240.0, 537.0, 240.0, 236.0, 241.0, 236.0, 243.0, 240.0, 239.0, 238.0, 239.0, 239.0, 568.0, 238.0, 242.0, 240.0, 239.0, 237.0, 238.0, 241.0, 238.0, 241.0, 238.0, 562.0, 241.0, 237.0, 240.0, 237.0, 240.0, 237.0, 239.0, 238.0, 236.0, 550.0, 239.0, 239.0, 240.0, 240.0, 238.0, 236.0, 242.0, 239.0, 240.0, 544.0, 238.0, 238.0, 238.0, 240.0, 240.0, 241.0, 236.0, 239.0, 237.0]
    },
    "slices": {}
  }
}