{
  "AcquisitionMatrixPE": 96,
  "AcquisitionNumber": 1,
  "AcquisitionTime": "16:44:11.545000",
  "BandwidthPerPixelPhaseEncode": 18.939,
  "BaseResolution": 96,
  "BodyPartExamined": "BRAIN",
  "ConsistencyInfo": "N4_VE11C_LATEST_20160120",
  "ConversionSoftware": "dcm2niix",
  "ConversionSoftwareVersion": "v1.0.20170923 (OpenJPEG build) GCC6.3.0",
  "DerivedVendorReportedEchoSpacing": 0.000550011,
  "DeviceSerialNumber": "66112",
  "DwellTime": 2.2e-06,
  "EchoTime": 0.033,
  "EchoTrainLength": 96,
  "EffectiveEchoSpacing": 0.000550011,
  "FlipAngle": 59,
  "ImageType": [
    "ORIGINAL",
    "PRIMARY",
    "FMRI",
    "NONE",
    "ND",
    "NORM",
    "MOSAIC"
],
  "InstitutionAddress": "Maynard_3_Hanover_NH_US_03755",
  "InstitutionName": "Dartmouth_College_-_PBS",
  "MagneticFieldStrength": 3,
  "Manufacturer": "Siemens",
  "ManufacturersModelName": "Prisma",
  "Modality": "MR",
  "MultibandAccelerationFactor": 4,
  "PartialFourier": 1,
  "PercentPhaseFOV": 100,
  "PhaseEncodingDirection": "j-",
  "PhaseEncodingSteps": 96,
  "PhaseResolution": 1,
  "ProcedureStepDescription": "Gobbini_Matteo_1038_hyperface",
  "ProtocolName": "func_run-05_task-localizer",
  "PulseSequenceDetails": "%SiemensSeq%_ep2d_bold",
  "ReceiveCoilActiveElements": "HEA;HEP",
  "ReceiveCoilName": "Head_32",
  "ReconMatrixPE": 96,
  "RepetitionTime": 1,
  "ScanOptions": "FS",
  "ScanningSequence": "EP",
  "SequenceName": "_epfid2d1_96",
  "SequenceVariant": "SK",
  "SeriesDescription": "func_run-05_task-localizer",
  "SliceTiming": [0.735, 0, 0.49, 0.0825, 0.5725, 0.165, 0.655, 0.3275, 0.8175, 0.41, 0.9, 0.245, 0.735, 0, 0.49, 0.0825, 0.5725, 0.165, 0.655, 0.3275, 0.8175, 0.41, 0.9, 0.245, 0.735, 0, 0.49, 0.0825, 0.5725, 0.165, 0.655, 0.3275, 0.8175, 0.41, 0.9, 0.245, 0.735, 0, 0.49, 0.0825, 0.5725, 0.165, 0.655, 0.3275, 0.8175, 0.41, 0.9, 0.245],
  "SoftwareVersions": "syngo_MR_E11",
  "StationName": "AWP66112",
  "TotalReadoutTime": 0.0522511,
  "dcmmeta_affine": [
    [-2.496321201324463, 0.04531674459576607, 0.12777525186538696, 117.61424255371094],
    [0.06510129570960999, 2.467456102371216, 0.39676445722579956, -111.07263946533203],
    [0.11891989409923553, -0.39950796961784363, 2.465005397796631, -46.509521484375],
    [0.0, 0.0, 0.0, 1.0]
],
  "dcmmeta_reorient_transform": [
    [0.0, -1.0, 0.0, 95.0],
    [1.0, 0.0, 0.0, 0.0],
    [0.0, 0.0, 1.0, 0.0],
    [0.0, 0.0, 0.0, 1.0]
],
  "dcmmeta_shape": [96, 96, 48, 236],
  "dcmmeta_slice_dim": 2,
  "dcmmeta_version": 0.6,
  "global": {
    "const": {
      "AccessionNumber": "A001173",
      "AcquisitionMatrix": [96, 0, 0, 96],
      "AngioFlag": "N",
      "BitsAllocated": 16,
      "BitsStored": 12,
      "BodyPartExamined": "BRAIN",
      "Columns": 672,
      "EchoNumbers": 1,
      "EchoTime": 33.0,
      "EchoTrainLength": 96,
      "FlipAngle": 59.0,
      "HighBit": 11,
      "ImageOrientationPatient": [0.99852850767904, -0.0260405195249, 0.04756795870282, 0.01812669767366, 0.98698245361245, 0.15980318861838],
      "ImagePositionPatient": [-853.91107850762, -815.21388393532, -233.77000319073],
      "ImageType": [
        "ORIGINAL",
        "PRIMARY",
        "FMRI",
        "NONE",
        "ND",
        "NORM",
        "MOSAIC"
],
      "ImagedNucleus": "1H",
      "ImagingFrequency": 123.252317,
      "InPlanePhaseEncodingDirection": "COL",
      "MRAcquisitionType": "2D",
      "MagneticFieldStrength": 3.0,
      "Manufacturer": "SIEMENS",
      "ManufacturerModelName": "Prisma",
      "Modality": "MR",
      "NumberOfAverages": 1.0,
      "NumberOfPhaseEncodingSteps": 96,
      "PercentPhaseFieldOfView": 100.0,
      "PercentSampling": 100.0,
      "PerformedProcedureStepStartTime": "161024.008000",
      "PhotometricInterpretation": "MONOCHROME2",
      "PixelBandwidth": 2365.0,
      "PixelRepresentation": 0,
      "PixelSpacing": [2.5, 2.5],
      "PositionReferenceIndicator": "",
      "ProtocolName": "func_run-05_task-localizer",
      "RepetitionTime": 1000.0,
      "Rows": 672,
      "SAR": 0.04136856921846,
      "SamplesPerPixel": 1,
      "ScanOptions": "FS",
      "ScanningSequence": "EP",
      "SequenceName": "*epfid2d1_96",
      "SequenceVariant": "SK",
      "SeriesDescription": "func_run-05_task-localizer",
      "SeriesNumber": 36,
      "SeriesTime": "164412.430000",
      "SliceLocation": -57.475082137786,
      "SliceThickness": 2.5,
      "SmallestImagePixelValue": 0,
      "SoftwareVersions": "syngo MR E11",
      "SpacingBetweenSlices": 2.4999999831241,
      "SpecificCharacterSet": "ISO_IR 100",
      "StudyID": "1",
      "StudyTime": "161023.913000",
      "TransmitCoilName": "Body",
      "VariableFlipAngleFlag": "N",
      "WindowCenterWidthExplanation": "Algo1",
      "dBdt": 0.0},
    "slices": {}
  },
  "time": {
    "samples": {
      "AcquisitionNumber": [1, 2, 3, 4, 5, 6, 7, 8, 9, 10, 11, 12, 13, 14, 15, 16, 17, 18, 19, 20, 21, 22, 23, 24, 25, 26, 27, 28, 29, 30, 31, 32, 33, 34, 35, 36, 37, 38, 39, 40, 41, 42, 43, 44, 45, 46, 47, 48, 49, 50, 51, 52, 53, 54, 55, 56, 57, 58, 59, 60, 61, 62, 63, 64, 65, 66, 67, 68, 69, 70, 71, 72, 73, 74, 75, 76, 77, 78, 79, 80, 81, 82, 83, 84, 85, 86, 87, 88, 89, 90, 91, 92, 93, 94, 95, 96, 97, 98, 99, 100, 101, 102, 103, 104, 105, 106, 107, 108, 109, 110, 111, 112, 113, 114, 115, 116, 117, 118, 119, 120, 121, 122, 123, 124, 125, 126, 127, 128, 129, 130, 131, 132, 133, 134, 135, 136, 137, 138, 139, 140, 141, 142, 143, 144, 145, 146, 147, 148, 149, 150, 151, 152, 153, 154, 155, 156, 157, 158, 159, 160, 161, 162, 163, 164, 165, 166, 167, 168, 169, 170, 171, 172, 173, 174, 175, 176, 177, 178, 179, 180, 181, 182, 183, 184, 185, 186, 187, 188, 189, 190, 191, 192, 193, 194, 195, 196, 197, 198, 199, 200, 201, 202, 203, 204, 205, 206, 207, 208, 209, 210, 211, 212, 213, 214, 215, 216, 217, 218, 219, 220, 221, 222, 223, 224, 225, 226, 227, 228, 229, 230, 231, 232, 233, 234, 235, 236],
      "AcquisitionTime": ["164411.545000", "164412.545000", "164413.545000", "164414.545000", "164415.545000", "164416.545000", "164417.545000", "164418.545000", "164419.545000", "164420.545000", "164421.545000", "164422.545000", "164423.545000", "164424.545000", "164425.545000", "164426.545000", "164427.545000", "164428.545000", "164429.545000", "164430.545000", "164431.545000", "164432.545000", "164433.545000", "164434.545000", "164435.545000", "164436.545000", "164437.545000", "164438.545000", "164439.545000", "164440.545000", "164441.545000", "164442.545000", "164443.545000", "164444.545000", "164445.545000", "164446.545000", "164447.545000", "164448.545000", "164449.545000", "164450.545000", "164451.545000", "164452.545000", "164453.545000", "164454.545000", "164455.545000", "164456.545000", "164457.545000", "164458.545000", "164459.545000", "164500.545000", "164501.545000", "164502.545000", "164503.545000", "164504.545000", "164505.545000", "164506.545000", "164507.545000", "164508.545000", "164509.545000", "164510.545000", "164511.545000", "164512.545000", "164513.545000", "164514.545000", "164515.545000", "164516.545000", "164517.545000", "164518.545000", "164519.545000", "164520.545000", "164521.545000", "164522.545000", "164523.545000", "164524.545000", "164525.545000", "164526.545000", "164527.545000", "164528.545000", "164529.545000", "164530.545000", "164531.545000", "164532.545000", "164533.545000", "164534.545000", "164535.545000", "164536.545000", "164537.545000", "164538.545000", "164539.545000", "164540.545000", "164541.545000", "164542.545000", "164543.545000", "164544.545000", "164545.545000", "164546.545000", "164547.545000", "164548.545000", "164549.545000", "164550.545000", "164551.545000", "164552.545000", "164553.545000", "164554.545000", "164555.545000", "164556.545000", "164557.545000", "164558.545000", "164559.545000", "164600.545000", "164601.545000", "164602.545000", "164603.545000", "164604.545000", "164605.545000", "164606.545000", "164607.545000", "164608.545000", "164609.545000", "164610.545000", "164611.545000", "164612.545000", "164613.545000", "164614.545000", "164615.545000", "164616.545000", "164617.545000", "164618.545000", "164619.545000", "164620.545000", "164621.545000", "164622.545000", "164623.545000", "164624.545000", "164625.545000", "164626.545000", "164627.545000", "164628.545000", "164629.545000", "164630.545000", "164631.545000", "164632.545000", "164633.545000", "164634.545000", "164635.545000", "164636.545000", "164637.545000", "164638.545000", "164639.545000", "164640.545000", "164641.545000", "164642.545000", "164643.545000", "164644.545000", "164645.545000", "164646.545000", "164647.545000", "164648.545000", "164649.545000", "164650.545000", "164651.545000", "164652.545000", "164653.545000", "164654.545000", "164655.545000", "164656.545000", "164657.545000", "164658.545000", "164659.545000", "164700.545000", "164701.545000", "164702.545000", "164703.545000", "164704.545000", "164705.545000", "164706.545000", "164707.545000", "164708.545000", "164709.545000", "164710.545000", "164711.545000", "164712.545000", "164713.545000", "164714.545000", "164715.545000", "164716.545000", "164717.545000", "164718.545000", "164719.545000", "164720.545000", "164721.545000", "164722.545000", "164723.545000", "164724.545000", "164725.545000", "164726.545000", "164727.545000", "164728.545000", "164729.545000", "164730.545000", "164731.545000", "164732.545000", "164733.545000", "164734.545000", "164735.545000", "164736.545000", "164737.545000", "164738.545000", "164739.545000", "164740.545000", "164741.545000", "164742.545000", "164743.545000", "164744.545000", "164745.545000", "164746.545000", "164747.545000", "164748.545000", "164749.545000", "164750.545000", "164751.545000", "164752.545000", "164753.545000", "164754.545000", "164755.545000", "164756.545000", "164757.545000", "164758.545000", "164759.545000", "164800.545000", "164801.545000", "164802.545000", "164803.545000", "164804.545000", "164805.545000", "164806.545000"],
      "ContentTime": ["164412.434000", "164413.235000", "164414.251000", "164415.246000", "164416.261000", "164417.268000", "164418.245000", "164419.272000", "164420.260000", "164421.256000", "164422.253000", "164423.254000", "164424.249000", "164425.239000", "164426.259000", "164427.227000", "164428.239000", "164429.246000", "164430.253000", "164431.259000", "164432.280000", "164433.286000", "164434.238000", "164435.263000", "164436.247000", "164437.257000", "164438.264000", "164439.241000", "164440.264000", "164441.251000", "164442.271000", "164443.289000", "164444.245000", "164445.242000", "164446.254000", "164447.266000", "164448.238000", "164449.247000", "164450.221000", "164451.244000", "164452.247000", "164453.254000", "164454.247000", "164455.243000", "164456.265000", "164457.243000", "164458.250000", "164459.255000", "164500.266000", "164501.217000", "164502.232000", "164503.245000", "164504.272000", "164505.240000", "164506.277000", "164507.255000", "164508.246000", "164509.240000", "164510.250000", "164511.248000", "164512.249000", "164513.246000", "164514.248000", "164515.242000", "164516.253000", "164517.274000", "164518.257000", "164519.211000", "164520.238000", "164521.248000", "164522.285000", "164523.260000", "164524.306000", "164525.265000", "164526.265000", "164527.258000", "164528.276000", "164529.236000", "164530.252000", "164531.280000", "164532.258000", "164533.244000", "164534.300000", "164535.239000", "164536.231000", "164537.251000", "164538.251000", "164539.255000", "164540.274000", "164541.255000", "164542.259000", "164543.250000", "164544.277000", "164545.231000", "164546.262000", "164547.282000", "164548.251000", "164549.257000", "164550.245000", "164551.270000", "164552.269000", "164553.254000", "164554.228000", "164555.249000", "164556.265000", "164557.280000", "164558.258000", "164559.268000", "164600.266000", "164601.273000", "164602.257000", "164603.286000", "164604.257000", "164605.236000", "164606.258000", "164607.241000", "164608.243000", "164609.235000", "164610.243000", "164611.261000", "164612.259000", "164613.256000", "164614.257000", "164615.257000", "164616.254000", "164617.267000", "164618.276000", "164619.265000", "164620.260000", "164621.342000", "164622.265000", "164623.266000", "164624.251000", "164625.273000", "164626.244000", "164627.260000", "164628.316000", "164629.260000", "164630.237000", "164631.250000", "164632.254000", "164633.296000", "164634.255000", "164635.254000", "164636.260000", "164637.262000", "164638.240000", "164639.254000", "164640.271000", "164641.262000", "164642.255000", "164643.253000", "164644.278000", "164645.237000", "164646.276000", "164647.256000", "164648.244000", "164649.234000", "164650.273000", "164651.243000", "164652.240000", "164653.232000", "164654.266000", "164655.273000", "164656.237000", "164657.254000", "164658.262000", "164659.241000", "164700.256000", "164701.282000", "164702.321000", "164703.252000", "164704.280000", "164705.253000", "164706.263000", "164707.268000", "164708.279000", "164709.303000", "164710.223000", "164711.242000", "164712.239000", "164713.262000", "164714.260000", "164715.311000", "164716.240000", "164717.260000", "164718.260000", "164719.274000", "164720.241000", "164721.248000", "164722.279000", "164723.213000", "164724.284000", "164725.239000", "164726.246000", "164727.266000", "164728.261000", "164729.259000", "164730.299000", "164731.259000", "164732.306000", "164733.275000", "164734.271000", "164735.258000", "164736.278000", "164737.290000", "164738.246000", "164739.253000", "164740.255000", "164741.266000", "164742.255000", "164743.234000", "164744.282000", "164745.236000", "164746.276000", "164747.265000", "164748.263000", "164749.254000", "164750.263000", "164751.246000", "164752.260000", "164753.221000", "164754.259000", "164755.297000", "164756.256000", "164757.245000", "164758.258000", "164759.229000", "164800.256000", "164801.260000", "164802.261000", "164803.235000", "164804.265000", "164805.258000", "164806.259000", "164807.284000"],
      "InstanceCreationTime": ["164412.434000", "164413.235000", "164414.251000", "164415.246000", "164416.261000", "164417.268000", "164418.245000", "164419.272000", "164420.260000", "164421.256000", "164422.253000", "164423.254000", "164424.249000", "164425.239000", "164426.259000", "164427.227000", "164428.239000", "164429.246000", "164430.253000", "164431.259000", "164432.280000", "164433.286000", "164434.238000", "164435.263000", "164436.247000", "164437.257000", "164438.264000", "164439.241000", "164440.264000", "164441.251000", "164442.271000", "164443.289000", "164444.245000", "164445.242000", "164446.254000", "164447.266000", "164448.238000", "164449.247000", "164450.221000", "164451.244000", "164452.247000", "164453.254000", "164454.247000", "164455.243000", "164456.265000", "164457.243000", "164458.250000", "164459.255000", "164500.266000", "164501.217000", "164502.232000", "164503.245000", "164504.272000", "164505.240000", "164506.277000", "164507.255000", "164508.246000", "164509.240000", "164510.250000", "164511.248000", "164512.249000", "164513.246000", "164514.248000", "164515.242000", "164516.253000", "164517.274000", "164518.257000", "164519.211000", "164520.238000", "164521.248000", "164522.285000", "164523.260000", "164524.306000", "164525.265000", "164526.265000", "164527.258000", "164528.276000", "164529.236000", "164530.252000", "164531.280000", "164532.258000", "164533.244000", "164534.300000", "164535.239000", "164536.231000", "164537.251000", "164538.251000", "164539.255000", "164540.274000", "164541.255000", "164542.259000", "164543.250000", "164544.277000", "164545.231000", "164546.262000", "164547.282000", "164548.251000", "164549.257000", "164550.245000", "164551.270000", "164552.269000", "164553.254000", "164554.228000", "164555.249000", "164556.265000", "164557.280000", "164558.258000", "164559.268000", "164600.266000", "164601.273000", "164602.257000", "164603.286000", "164604.257000", "164605.236000", "164606.258000", "164607.241000", "164608.243000", "164609.235000", "164610.243000", "164611.261000", "164612.259000", "164613.256000", "164614.257000", "164615.257000", "164616.254000", "164617.267000", "164618.276000", "164619.265000", "164620.260000", "164621.342000", "164622.265000", "164623.266000", "164624.251000", "164625.273000", "164626.244000", "164627.260000", "164628.316000", "164629.260000", "164630.237000", "164631.250000", "164632.254000", "164633.296000", "164634.255000", "164635.254000", "164636.260000", "164637.262000", "164638.240000", "164639.254000", "164640.271000", "164641.262000", "164642.255000", "164643.253000", "164644.278000", "164645.237000", "164646.276000", "164647.256000", "164648.244000", "164649.234000", "164650.273000", "164651.243000", "164652.240000", "164653.232000", "164654.266000", "164655.273000", "164656.237000", "164657.254000", "164658.262000", "164659.241000", "164700.256000", "164701.282000", "164702.321000", "164703.252000", "164704.280000", "164705.253000", "164706.263000", "164707.268000", "164708.279000", "164709.303000", "164710.223000", "164711.242000", "164712.239000", "164713.262000", "164714.260000", "164715.311000", "164716.240000", "164717.260000", "164718.260000", "164719.274000", "164720.241000", "164721.248000", "164722.279000", "164723.213000", "164724.284000", "164725.239000", "164726.246000", "164727.266000", "164728.261000", "164729.259000", "164730.299000", "164731.259000", "164732.306000", "164733.275000", "164734.271000", "164735.258000", "164736.278000", "164737.290000", "164738.246000", "164739.253000", "164740.255000", "164741.266000", "164742.255000", "164743.234000", "164744.282000", "164745.236000", "164746.276000", "164747.265000", "164748.263000", "164749.254000", "164750.263000", "164751.246000", "164752.260000", "164753.221000", "164754.259000", "164755.297000", "164756.256000", "164757.245000", "164758.258000", "164759.229000", "164800.256000", "164801.260000", "164802.261000", "164803.235000", "164804.265000", "164805.258000", "164806.259000", "164807.284000"],
      "InstanceNumber": [1, 2, 3, 4, 5, 6, 7, 8, 9, 10, 11, 12, 13, 14, 15, 16, 17, 18, 19, 20, 21, 22, 23, 24, 25, 26, 27, 28, 29, 30, 31, 32, 33, 34, 35, 36, 37, 38, 39, 40, 41, 42, 43, 44, 45, 46, 47, 48, 49, 50, 51, 52, 53, 54, 55, 56, 57, 58, 59, 60, 61, 62, 63, 64, 65, 66, 67, 68, 69, 70, 71, 72, 73, 74, 75, 76, 77, 78, 79, 80, 81, 82, 83, 84, 85, 86, 87, 88, 89, 90, 91, 92, 93, 94, 95, 96, 97, 98, 99, 100, 101, 102, 103, 104, 105, 106, 107, 108, 109, 110, 111, 112, 113, 114, 115, 116, 117, 118, 119, 120, 121, 122, 123, 124, 125, 126, 127, 128, 129, 130, 131, 132, 133, 134, 135, 136, 137, 138, 139, 140, 141, 142, 143, 144, 145, 146, 147, 148, 149, 150, 151, 152, 153, 154, 155, 156, 157, 158, 159, 160, 161, 162, 163, 164, 165, 166, 167, 168, 169, 170, 171, 172, 173, 174, 175, 176, 177, 178, 179, 180, 181, 182, 183, 184, 185, 186, 187, 188, 189, 190, 191, 192, 193, 194, 195, 196, 197, 198, 199, 200, 201, 202, 203, 204, 205, 206, 207, 208, 209, 210, 211, 212, 213, 214, 215, 216, 217, 218, 219, 220, 221, 222, 223, 224, 225, 226, 227, 228, 229, 230, 231, 232, 233, 234, 235, 236],
      "LargestImagePixelValue": [745, 761, 1386, 1218, 893, 957, 1509, 808, 743, 741, 761, 697, 833, 970, 698, 736, 900, 739, 754, 823, 970, 704, 777, 927, 733, 750, 744, 1239, 716, 749, 729, 728, 732, 807, 761, 744, 749, 1222, 719, 728, 1280, 736, 738, 1253, 1275, 709, 749, 797, 1137, 710, 791, 724, 693, 762, 760, 1276, 710, 750, 899, 728, 747, 899, 720, 756, 1042, 725, 774, 1119, 765, 746, 1036, 802, 721, 763, 761, 707, 791, 1346, 841, 746, 1454, 1031, 700, 896, 807, 706, 756, 980, 701, 747, 1142, 711, 732, 1385, 868, 720, 1348, 910, 720, 993, 1276, 707, 773, 739, 712, 732, 785, 732, 712, 740, 903, 713, 719, 788, 700, 797, 1189, 1184, 1273, 1309, 1451, 697, 730, 822, 723, 764, 1268, 1051, 756, 965, 713, 801, 764, 760, 771, 712, 779, 777, 704, 795, 754, 792, 764, 900, 814, 745, 1067, 751, 726, 816, 719, 754, 775, 1264, 718, 733, 1328, 1055, 824, 753, 709, 725, 747, 754, 706, 762, 1005, 780, 714, 928, 754, 723, 1004, 771, 730, 765, 723, 785, 757, 803, 735, 747, 938, 746, 756, 1445, 1138, 727, 1069, 1106, 713, 786, 750, 687, 773, 748, 732, 818, 745, 906, 806, 746, 1086, 781, 714, 789, 764, 717, 741, 764, 741, 861, 742, 751, 763, 707, 738, 772, 1036, 728, 760, 769, 750, 706, 873, 792, 1100, 1409, 1211, 849, 883, 946, 731, 766, 839, 718],
      "WindowCenter": [365.0, 365.0, 368.0, 366.0, 364.0, 364.0, 366.0, 362.0, 361.0, 362.0, 362.0, 362.0, 363.0, 364.0, 362.0, 362.0, 364.0, 362.0, 363.0, 363.0, 364.0, 362.0, 363.0, 364.0, 362.0, 362.0, 362.0, 365.0, 361.0, 362.0, 362.0, 363.0, 363.0, 363.0, 364.0, 363.0, 363.0, 366.0, 362.0, 362.0, 366.0, 362.0, 362.0, 366.0, 366.0, 362.0, 362.0, 363.0, 365.0, 362.0, 363.0, 362.0, 362.0, 363.0, 363.0, 366.0, 362.0, 363.0, 364.0, 362.0, 363.0, 364.0, 362.0, 364.0, 366.0, 363.0, 363.0, 366.0, 363.0, 363.0, 365.0, 363.0, 362.0, 363.0, 364.0, 362.0, 364.0, 367.0, 364.0, 363.0, 367.0, 365.0, 362.0, 364.0, 363.0, 362.0, 363.0, 364.0, 362.0, 363.0, 366.0, 362.0, 363.0, 367.0, 363.0, 362.0, 366.0, 364.0, 362.0, 364.0, 365.0, 362.0, 362.0, 362.0, 362.0, 362.0, 363.0, 362.0, 362.0, 362.0, 364.0, 362.0, 362.0, 364.0, 363.0, 364.0, 366.0, 366.0, 366.0, 365.0, 366.0, 361.0, 362.0, 363.0, 362.0, 363.0, 365.0, 364.0, 362.0, 364.0, 362.0, 363.0, 362.0, 362.0, 363.0, 362.0, 363.0, 363.0, 362.0, 364.0, 363.0, 364.0, 363.0, 364.0, 364.0, 363.0, 366.0, 363.0, 363.0, 364.0, 362.0, 363.0, 363.0, 366.0, 363.0, 363.0, 367.0, 365.0, 363.0, 362.0, 362.0, 362.0, 362.0, 363.0, 362.0, 364.0, 365.0, 363.0, 362.0, 364.0, 363.0, 362.0, 365.0, 363.0, 363.0, 363.0, 362.0, 363.0, 363.0, 363.0, 363.0, 363.0, 365.0, 363.0, 363.0, 367.0, 366.0, 362.0, 365.0, 365.0, 362.0, 363.0, 362.0, 362.0, 363.0, 362.0, 362.0, 363.0, 362.0, 364.0, 364.0, 363.0, 366.0, 363.0, 362.0, 363.0, 363.0, 362.0, 362.0, 363.0, 363.0, 364.0, 363.0, 363.0, 363.0, 362.0, 363.0, 364.0, 365.0, 362.0, 363.0, 363.0, 364.0, 363.0, 365.0, 364.0, 366.0, 367.0, 366.0, 363.0, 363.0, 364.0, 362.0, 362.0, 363.0, 362.0],
      "WindowWidth": [780.0, 779.0, 783.0, 781.0, 777.0, 777.0, 779.0, 774.0, 773.0, 773.0, 774.0, 774.0, 775.0, 777.0, 774.0, 774.0, 776.0, 775.0, 776.0, 776.0, 777.0, 775.0, 775.0, 777.0, 775.0, 774.0, 773.0, 779.0, 773.0, 774.0, 775.0, 775.0, 777.0, 776.0, 777.0, 776.0, 776.0, 780.0, 775.0, 775.0, 780.0, 775.0, 775.0, 780.0, 780.0, 775.0, 775.0, 775.0, 779.0, 774.0, 776.0, 775.0, 775.0, 776.0, 776.0, 779.0, 774.0, 775.0, 777.0, 775.0, 776.0, 778.0, 775.0, 777.0, 780.0, 776.0, 777.0, 779.0, 776.0, 776.0, 779.0, 776.0, 775.0, 776.0, 777.0, 775.0, 777.0, 781.0, 778.0, 776.0, 781.0, 778.0, 774.0, 777.0, 775.0, 775.0, 776.0, 778.0, 775.0, 776.0, 780.0, 775.0, 776.0, 781.0, 776.0, 774.0, 780.0, 777.0, 775.0, 777.0, 779.0, 774.0, 774.0, 774.0, 774.0, 774.0, 775.0, 775.0, 774.0, 775.0, 777.0, 775.0, 775.0, 777.0, 776.0, 779.0, 781.0, 780.0, 780.0, 779.0, 779.0, 773.0, 774.0, 776.0, 775.0, 775.0, 779.0, 777.0, 774.0, 777.0, 774.0, 775.0, 774.0, 774.0, 775.0, 774.0, 775.0, 776.0, 775.0, 777.0, 776.0, 777.0, 776.0, 777.0, 777.0, 776.0, 780.0, 776.0, 776.0, 777.0, 775.0, 776.0, 776.0, 780.0, 776.0, 776.0, 781.0, 778.0, 775.0, 775.0, 773.0, 774.0, 775.0, 776.0, 775.0, 777.0, 779.0, 776.0, 775.0, 777.0, 776.0, 775.0, 779.0, 776.0, 776.0, 776.0, 775.0, 776.0, 776.0, 777.0, 776.0, 776.0, 778.0, 776.0, 776.0, 781.0, 779.0, 775.0, 778.0, 778.0, 774.0, 775.0, 774.0, 774.0, 776.0, 775.0, 775.0, 776.0, 775.0, 777.0, 777.0, 776.0, 780.0, 776.0, 775.0, 776.0, 776.0, 775.0, 775.0, 776.0, 776.0, 777.0, 776.0, 776.0, 776.0, 775.0, 776.0, 777.0, 778.0, 775.0, 776.0, 776.0, 777.0, 777.0, 779.0, 778.0, 780.0, 781.0, 780.0, 776.0, 776.0, 777.0, 774.0, 774.0, 775.0, 774.0]
    },
    "slices": {}
  }
}