{
  "AcquisitionMatrixPE": 96,
  "AcquisitionNumber": 1,
  "AcquisitionTime": "17:00:15.027500",
  "BandwidthPerPixelPhaseEncode": 18.939,
  "BaseResolution": 96,
  "BodyPartExamined": "BRAIN",
  "ConsistencyInfo": "N4_VE11C_LATEST_20160120",
  "ConversionSoftware": "dcm2niix",
  "ConversionSoftwareVersion": "v1.0.20170923 (OpenJPEG build) GCC6.3.0",
  "DerivedVendorReportedEchoSpacing": 0.000550011,
  "DeviceSerialNumber": "66112",
  "DwellTime": 2.2e-06,
  "EchoTime": 0.033,
  "EchoTrainLength": 96,
  "EffectiveEchoSpacing": 0.000550011,
  "FlipAngle": 59,
  "ImageType": [
    "ORIGINAL",
    "PRIMARY",
    "FMRI",
    "NONE",
    "ND",
    "NORM",
    "MOSAIC"
],
  "InstitutionAddress": "Maynard_3_Hanover_NH_US_03755",
  "InstitutionName": "Dartmouth_College_-_PBS",
  "MagneticFieldStrength": 3,
  "Manufacturer": "Siemens",
  "ManufacturersModelName": "Prisma",
  "Modality": "MR",
  "MultibandAccelerationFactor": 4,
  "PartialFourier": 1,
  "PercentPhaseFOV": 100,
  "PhaseEncodingDirection": "j-",
  "PhaseEncodingSteps": 96,
  "PhaseResolution": 1,
  "ProcedureStepDescription": "Gobbini_Matteo_1038_hyperface",
  "ProtocolName": "func_run-08_task-visualmemory",
  "PulseSequenceDetails": "%SiemensSeq%_ep2d_bold",
  "ReceiveCoilActiveElements": "HEA;HEP",
  "ReceiveCoilName": "Head_32",
  "ReconMatrixPE": 96,
  "RepetitionTime": 1,
  "ScanOptions": "FS",
  "ScanningSequence": "EP",
  "SequenceName": "_epfid2d1_96",
  "SequenceVariant": "SK",
  "SeriesDescription": "func_run-08_task-visualmemory",
  "SliceTiming": [0.735, 0, 0.49, 0.0825, 0.5725, 0.1625, 0.6525, 0.3275, 0.8175, 0.4075, 0.8975, 0.245, 0.735, 0, 0.49, 0.0825, 0.5725, 0.1625, 0.6525, 0.3275, 0.8175, 0.4075, 0.8975, 0.245, 0.735, 0, 0.49, 0.0825, 0.5725, 0.1625, 0.6525, 0.3275, 0.8175, 0.4075, 0.8975, 0.245, 0.735, 0, 0.49, 0.0825, 0.5725, 0.1625, 0.6525, 0.3275, 0.8175, 0.4075, 0.8975, 0.245],
  "SoftwareVersions": "syngo_MR_E11",
  "StationName": "AWP66112",
  "TotalReadoutTime": 0.0522511,
  "dcmmeta_affine": [
    [-2.496321201324463, 0.04531674459576607, 0.12777525186538696, 117.61424255371094],
    [0.06510129570960999, 2.467456102371216, 0.39676445722579956, -111.07263946533203],
    [0.11891989409923553, -0.39950796961784363, 2.465005397796631, -46.509521484375],
    [0.0, 0.0, 0.0, 1.0]
],
  "dcmmeta_reorient_transform": [
    [0.0, -1.0, 0.0, 95.0],
    [1.0, 0.0, 0.0, 0.0],
    [0.0, 0.0, 1.0, 0.0],
    [0.0, 0.0, 0.0, 1.0]
],
  "dcmmeta_shape": [96, 96, 48, 288],
  "dcmmeta_slice_dim": 2,
  "dcmmeta_version": 0.6,
  "global": {
    "const": {
      "AccessionNumber": "A001173",
      "AcquisitionMatrix": [96, 0, 0, 96],
      "AngioFlag": "N",
      "BitsAllocated": 16,
      "BitsStored": 12,
      "BodyPartExamined": "BRAIN",
      "Columns": 672,
      "EchoNumbers": 1,
      "EchoTime": 33.0,
      "EchoTrainLength": 96,
      "FlipAngle": 59.0,
      "HighBit": 11,
      "ImageOrientationPatient": [0.99852850767904, -0.0260405195249, 0.04756795870282, 0.01812669767366, 0.98698245361245, 0.15980318861838],
      "ImagePositionPatient": [-853.91107850762, -815.21388393532, -233.77000319073],
      "ImageType": [
        "ORIGINAL",
        "PRIMARY",
        "FMRI",
        "NONE",
        "ND",
        "NORM",
        "MOSAIC"
],
      "ImagedNucleus": "1H",
      "ImagingFrequency": 123.252316,
      "InPlanePhaseEncodingDirection": "COL",
      "MRAcquisitionType": "2D",
      "MagneticFieldStrength": 3.0,
      "Manufacturer": "SIEMENS",
      "ManufacturerModelName": "Prisma",
      "Modality": "MR",
      "NumberOfAverages": 1.0,
      "NumberOfPhaseEncodingSteps": 96,
      "PercentPhaseFieldOfView": 100.0,
      "PercentSampling": 100.0,
      "PerformedProcedureStepStartTime": "161024.008000",
      "PhotometricInterpretation": "MONOCHROME2",
      "PixelBandwidth": 2365.0,
      "PixelRepresentation": 0,
      "PixelSpacing": [2.5, 2.5],
      "PositionReferenceIndicator": "",
      "ProtocolName": "func_run-08_task-visualmemory",
      "RepetitionTime": 1000.0,
      "Rows": 672,
      "SAR": 0.04146772301489,
      "SamplesPerPixel": 1,
      "ScanOptions": "FS",
      "ScanningSequence": "EP",
      "SequenceName": "*epfid2d1_96",
      "SequenceVariant": "SK",
      "SeriesDescription": "func_run-08_task-visualmemory",
      "SeriesNumber": 57,
      "SeriesTime": "170016.005000",
      "SliceLocation": -57.475082137786,
      "SliceThickness": 2.5,
      "SmallestImagePixelValue": 0,
      "SoftwareVersions": "syngo MR E11",
      "SpacingBetweenSlices": 2.4999999831241,
      "SpecificCharacterSet": "ISO_IR 100",
      "StudyID": "1",
      "StudyTime": "161023.913000",
      "TransmitCoilName": "Body",
      "VariableFlipAngleFlag": "N",
      "WindowCenterWidthExplanation": "Algo1",
      "dBdt": 0.0},
    "slices": {}
  },
  "time": {
    "samples": {
      "AcquisitionNumber": [1, 2, 3, 4, 5, 6, 7, 8, 9, 10, 11, 12, 13, 14, 15, 16, 17, 18, 19, 20, 21, 22, 23, 24, 25, 26, 27, 28, 29, 30, 31, 32, 33, 34, 35, 36, 37, 38, 39, 40, 41, 42, 43, 44, 45, 46, 47, 48, 49, 50, 51, 52, 53, 54, 55, 56, 57, 58, 59, 60, 61, 62, 63, 64, 65, 66, 67, 68, 69, 70, 71, 72, 73, 74, 75, 76, 77, 78, 79, 80, 81, 82, 83, 84, 85, 86, 87, 88, 89, 90, 91, 92, 93, 94, 95, 96, 97, 98, 99, 100, 101, 102, 103, 104, 105, 106, 107, 108, 109, 110, 111, 112, 113, 114, 115, 116, 117, 118, 119, 120, 121, 122, 123, 124, 125, 126, 127, 128, 129, 130, 131, 132, 133, 134, 135, 136, 137, 138, 139, 140, 141, 142, 143, 144, 145, 146, 147, 148, 149, 150, 151, 152, 153, 154, 155, 156, 157, 158, 159, 160, 161, 162, 163, 164, 165, 166, 167, 168, 169, 170, 171, 172, 173, 174, 175, 176, 177, 178, 179, 180, 181, 182, 183, 184, 185, 186, 187, 188, 189, 190, 191, 192, 193, 194, 195, 196, 197, 198, 199, 200, 201, 202, 203, 204, 205, 206, 207, 208, 209, 210, 211, 212, 213, 214, 215, 216, 217, 218, 219, 220, 221, 222, 223, 224, 225, 226, 227, 228, 229, 230, 231, 232, 233, 234, 235, 236, 237, 238, 239, 240, 241, 242, 243, 244, 245, 246, 247, 248, 249, 250, 251, 252, 253, 254, 255, 256, 257, 258, 259, 260, 261, 262, 263, 264, 265, 266, 267, 268, 269, 270, 271, 272, 273, 274, 275, 276, 277, 278, 279, 280, 281, 282, 283, 284, 285, 286, 287, 288],
      "AcquisitionTime": ["170015.027500", "170016.027500", "170017.027500", "170018.027500", "170019.027500", "170020.027500", "170021.027500", "170022.027500", "170023.027500", "170024.027500", "170025.027500", "170026.027500", "170027.027500", "170028.027500", "170029.027500", "170030.027500", "170031.027500", "170032.027500", "170033.027500", "170034.027500", "170035.027500", "170036.027500", "170037.027500", "170038.027500", "170039.027500", "170040.027500", "170041.027500", "170042.027500", "170043.027500", "170044.027500", "170045.027500", "170046.027500", "170047.027500", "170048.027500", "170049.027500", "170050.027500", "170051.027500", "170052.027500", "170053.027500", "170054.027500", "170055.027500", "170056.027500", "170057.027500", "170058.027500", "170059.027500", "170100.027500", "170101.027500", "170102.027500", "170103.027500", "170104.027500", "170105.027500", "170106.027500", "170107.027500", "170108.027500", "170109.027500", "170110.027500", "170111.027500", "170112.027500", "170113.027500", "170114.027500", "170115.027500", "170116.027500", "170117.027500", "170118.027500", "170119.027500", "170120.027500", "170121.027500", "170122.027500", "170123.027500", "170124.027500", "170125.027500", "170126.027500", "170127.027500", "170128.027500", "170129.027500", "170130.027500", "170131.027500", "170132.027500", "170133.027500", "170134.027500", "170135.027500", "170136.027500", "170137.027500", "170138.027500", "170139.027500", "170140.027500", "170141.027500", "170142.027500", "170143.027500", "170144.027500", "170145.027500", "170146.027500", "170147.027500", "170148.027500", "170149.027500", "170150.027500", "170151.027500", "170152.027500", "170153.027500", "170154.027500", "170155.027500", "170156.027500", "170157.027500", "170158.027500", "170159.027500", "170200.027500", "170201.027500", "170202.027500", "170203.027500", "170204.027500", "170205.027500", "170206.027500", "170207.027500", "170208.027500", "170209.027500", "170210.027500", "170211.027500", "170212.027500", "170213.027500", "170214.027500", "170215.027500", "170216.027500", "170217.027500", "170218.027500", "170219.027500", "170220.027500", "170221.027500", "170222.027500", "170223.027500", "170224.027500", "170225.027500", "170226.027500", "170227.027500", "170228.027500", "170229.027500", "170230.027500", "170231.027500", "170232.027500", "170233.027500", "170234.027500", "170235.027500", "170236.027500", "170237.027500", "170238.027500", "170239.027500", "170240.027500", "170241.027500", "170242.027500", "170243.027500", "170244.027500", "170245.027500", "170246.027500", "170247.027500", "170248.027500", "170249.027500", "170250.027500", "170251.027500", "170252.027500", "170253.027500", "170254.027500", "170255.027500", "170256.027500", "170257.027500", "170258.027500", "170259.027500", "170300.027500", "170301.027500", "170302.027500", "170303.027500", "170304.027500", "170305.027500", "170306.027500", "170307.027500", "170308.027500", "170309.027500", "170310.027500", "170311.027500", "170312.027500", "170313.027500", "170314.027500", "170315.027500", "170316.027500", "170317.027500", "170318.027500", "170319.027500", "170320.027500", "170321.027500", "170322.027500", "170323.027500", "170324.027500", "170325.027500", "170326.027500", "170327.027500", "170328.027500", "170329.027500", "170330.027500", "170331.027500", "170332.027500", "170333.027500", "170334.027500", "170335.027500", "170336.027500", "170337.027500", "170338.027500", "170339.027500", "170340.027500", "170341.027500", "170342.027500", "170343.027500", "170344.027500", "170345.027500", "170346.027500", "170347.027500", "170348.027500", "170349.027500", "170350.027500", "170351.027500", "170352.027500", "170353.027500", "170354.027500", "170355.027500", "170356.027500", "170357.027500", "170358.027500", "170359.027500", "170400.027500", "170401.027500", "170402.027500", "170403.027500", "170404.027500", "170405.027500", "170406.027500", "170407.027500", "170408.027500", "170409.027500", "170410.027500", "170411.027500", "170412.027500", "170413.027500", "170414.027500", "170415.027500", "170416.027500", "170417.027500", "170418.027500", "170419.027500", "170420.027500", "170421.027500", "170422.027500", "170423.027500", "170424.027500", "170425.027500", "170426.027500", "170427.027500", "170428.027500", "170429.027500", "170430.027500", "170431.027500", "170432.027500", "170433.027500", "170434.027500", "170435.027500", "170436.027500", "170437.027500", "170438.027500", "170439.027500", "170440.027500", "170441.027500", "170442.027500", "170443.027500", "170444.027500", "170445.027500", "170446.027500", "170447.027500", "170448.027500", "170449.027500", "170450.027500", "170451.027500", "170452.027500", "170453.027500", "170454.027500", "170455.027500", "170456.027500", "170457.027500", "170458.027500", "170459.027500", "170500.027500", "170501.027500", "170502.027500"],
      "ContentTime": ["170016.009000", "170016.787000", "170017.782000", "170018.778000", "170019.783000", "170020.778000", "170021.773000", "170022.812000", "170023.813000", "170024.784000", "170025.764000", "170026.761000", "170027.787000", "170028.759000", "170029.813000", "170030.782000", "170031.803000", "170032.768000", "170033.779000", "170034.783000", "170035.768000", "170036.785000", "170037.787000", "170038.794000", "170039.781000", "170040.776000", "170041.810000", "170042.776000", "170043.771000", "170044.787000", "170045.821000", "170046.836000", "170047.773000", "170048.775000", "170049.883000", "170050.804000", "170051.791000", "170052.794000", "170053.790000", "170054.851000", "170055.840000", "170056.802000", "170057.783000", "170058.774000", "170059.789000", "170100.843000", "170101.796000", "170102.838000", "170103.804000", "170104.782000", "170105.805000", "170106.830000", "170107.796000", "170108.777000", "170109.772000", "170110.781000", "170111.769000", "170112.784000", "170113.766000", "170114.783000", "170115.782000", "170116.764000", "170117.759000", "170118.776000", "170119.757000", "170120.767000", "170121.768000", "170122.778000", "170123.762000", "170124.782000", "170125.796000", "170126.767000", "170127.781000", "170128.765000", "170129.775000", "170130.785000", "170131.767000", "170132.803000", "170133.765000", "170134.759000", "170135.798000", "170136.785000", "170137.787000", "170138.776000", "170139.779000", "170140.792000", "170141.810000", "170142.826000", "170143.747000", "170144.770000", "170145.751000", "170146.778000", "170147.790000", "170148.823000", "170149.842000", "170150.780000", "170151.806000", "170152.817000", "170153.809000", "170154.801000", "170155.790000", "170156.860000", "170157.837000", "170158.799000", "170159.807000", "170200.812000", "170201.793000", "170202.812000", "170203.801000", "170204.801000", "170205.823000", "170206.798000", "170207.780000", "170208.779000", "170209.798000", "170210.779000", "170211.796000", "170212.783000", "170213.778000", "170214.782000", "170215.799000", "170216.788000", "170217.773000", "170218.834000", "170219.784000", "170220.797000", "170221.771000", "170222.762000", "170223.763000", "170224.789000", "170225.782000", "170226.783000", "170227.792000", "170228.779000", "170229.777000", "170230.827000", "170231.808000", "170232.800000", "170233.928000", "170234.797000", "170235.768000", "170236.780000", "170237.777000", "170238.809000", "170239.768000", "170240.758000", "170241.778000", "170242.784000", "170243.806000", "170244.787000", "170245.814000", "170246.779000", "170247.791000", "170248.752000", "170249.787000", "170250.873000", "170251.769000", "170252.805000", "170253.800000", "170254.771000", "170255.754000", "170256.764000", "170257.772000", "170258.763000", "170259.771000", "170300.833000", "170301.769000", "170302.760000", "170303.758000", "170304.759000", "170305.777000", "170306.773000", "170307.756000", "170308.805000", "170309.785000", "170310.800000", "170311.780000", "170312.781000", "170313.754000", "170314.801000", "170315.768000", "170316.775000", "170317.791000", "170318.782000", "170319.773000", "170320.803000", "170321.793000", "170322.788000", "170323.780000", "170324.782000", "170325.783000", "170326.781000", "170327.776000", "170328.789000", "170329.796000", "170330.800000", "170331.777000", "170332.796000", "170333.775000", "170334.817000", "170335.765000", "170336.773000", "170337.797000", "170338.801000", "170339.774000", "170340.767000", "170341.792000", "170342.788000", "170343.791000", "170344.801000", "170345.814000", "170346.767000", "170347.744000", "170348.765000", "170349.790000", "170350.796000", "170351.778000", "170352.777000", "170353.787000", "170354.769000", "170355.772000", "170356.790000", "170357.797000", "170358.773000", "170359.810000", "170400.790000", "170401.825000", "170402.783000", "170403.772000", "170404.775000", "170405.768000", "170406.751000", "170407.783000", "170408.810000", "170409.834000", "170410.830000", "170411.767000", "170412.772000", "170413.819000", "170414.791000", "170415.783000", "170416.792000", "170417.813000", "170418.791000", "170419.764000", "170420.773000", "170421.754000", "170422.802000", "170423.787000", "170424.779000", "170425.761000", "170426.787000", "170427.765000", "170428.794000", "170429.779000", "170430.793000", "170431.778000", "170432.769000", "170433.775000", "170434.768000", "170435.776000", "170436.799000", "170437.774000", "170438.767000", "170439.812000", "170440.782000", "170441.841000", "170442.805000", "170443.775000", "170444.772000", "170445.768000", "170446.782000", "170447.776000", "170448.790000", "170449.776000", "170450.772000", "170451.829000", "170452.769000", "170453.745000", "170454.777000", "170455.789000", "170456.811000", "170457.831000", "170458.798000", "170459.782000", "170500.784000", "170501.845000", "170502.819000"],
      "InstanceCreationTime": ["170016.009000", "170016.787000", "170017.782000", "170018.778000", "170019.783000", "170020.778000", "170021.773000", "170022.812000", "170023.813000", "170024.784000", "170025.764000", "170026.761000", "170027.787000", "170028.759000", "170029.813000", "170030.782000", "170031.803000", "170032.768000", "170033.779000", "170034.783000", "170035.768000", "170036.785000", "170037.787000", "170038.794000", "170039.781000", "170040.776000", "170041.810000", "170042.776000", "170043.771000", "170044.787000", "170045.821000", "170046.836000", "170047.773000", "170048.775000", "170049.883000", "170050.804000", "170051.791000", "170052.794000", "170053.790000", "170054.851000", "170055.840000", "170056.802000", "170057.783000", "170058.774000", "170059.789000", "170100.843000", "170101.796000", "170102.838000", "170103.804000", "170104.782000", "170105.805000", "170106.830000", "170107.796000", "170108.777000", "170109.772000", "170110.781000", "170111.769000", "170112.784000", "170113.766000", "170114.783000", "170115.782000", "170116.764000", "170117.759000", "170118.776000", "170119.757000", "170120.767000", "170121.768000", "170122.778000", "170123.762000", "170124.782000", "170125.796000", "170126.767000", "170127.781000", "170128.765000", "170129.775000", "170130.785000", "170131.767000", "170132.803000", "170133.765000", "170134.759000", "170135.798000", "170136.785000", "170137.787000", "170138.776000", "170139.779000", "170140.792000", "170141.810000", "170142.826000", "170143.747000", "170144.770000", "170145.751000", "170146.778000", "170147.790000", "170148.823000", "170149.842000", "170150.780000", "170151.806000", "170152.817000", "170153.809000", "170154.801000", "170155.790000", "170156.860000", "170157.837000", "170158.799000", "170159.807000", "170200.812000", "170201.793000", "170202.812000", "170203.801000", "170204.801000", "170205.823000", "170206.798000", "170207.780000", "170208.779000", "170209.798000", "170210.779000", "170211.796000", "170212.783000", "170213.778000", "170214.782000", "170215.799000", "170216.788000", "170217.773000", "170218.834000", "170219.784000", "170220.797000", "170221.771000", "170222.762000", "170223.763000", "170224.789000", "170225.782000", "170226.783000", "170227.792000", "170228.779000", "170229.777000", "170230.827000", "170231.808000", "170232.800000", "170233.928000", "170234.797000", "170235.768000", "170236.780000", "170237.777000", "170238.809000", "170239.768000", "170240.758000", "170241.778000", "170242.784000", "170243.806000", "170244.787000", "170245.814000", "170246.779000", "170247.791000", "170248.752000", "170249.787000", "170250.873000", "170251.769000", "170252.805000", "170253.800000", "170254.771000", "170255.754000", "170256.764000", "170257.772000", "170258.763000", "170259.771000", "170300.833000", "170301.769000", "170302.760000", "170303.758000", "170304.759000", "170305.777000", "170306.773000", "170307.756000", "170308.805000", "170309.785000", "170310.800000", "170311.780000", "170312.781000", "170313.754000", "170314.801000", "170315.768000", "170316.775000", "170317.791000", "170318.782000", "170319.773000", "170320.803000", "170321.793000", "170322.788000", "170323.780000", "170324.782000", "170325.783000", "170326.781000", "170327.776000", "170328.789000", "170329.796000", "170330.800000", "170331.777000", "170332.796000", "170333.775000", "170334.817000", "170335.765000", "170336.773000", "170337.797000", "170338.801000", "170339.774000", "170340.767000", "170341.792000", "170342.788000", "170343.791000", "170344.801000", "170345.814000", "170346.767000", "170347.744000", "170348.765000", "170349.790000", "170350.796000", "170351.778000", "170352.777000", "170353.787000", "170354.769000", "170355.772000", "170356.790000", "170357.797000", "170358.773000", "170359.810000", "170400.790000", "170401.825000", "170402.783000", "170403.772000", "170404.775000", "170405.768000", "170406.751000", "170407.783000", "170408.810000", "170409.834000", "170410.830000", "170411.767000", "170412.772000", "170413.819000", "170414.791000", "170415.783000", "170416.792000", "170417.813000", "170418.791000", "170419.764000", "170420.773000", "170421.754000", "170422.802000", "170423.787000", "170424.779000", "170425.761000", "170426.787000", "170427.765000", "170428.794000", "170429.779000", "170430.793000", "170431.778000", "170432.769000", "170433.775000", "170434.768000", "170435.776000", "170436.799000", "170437.774000", "170438.767000", "170439.812000", "170440.782000", "170441.841000", "170442.805000", "170443.775000", "170444.772000", "170445.768000", "170446.782000", "170447.776000", "170448.790000", "170449.776000", "170450.772000", "170451.829000", "170452.769000", "170453.745000", "170454.777000", "170455.789000", "170456.811000", "170457.831000", "170458.798000", "170459.782000", "170500.784000", "170501.845000", "170502.819000"],
      "InstanceNumber": [1, 2, 3, 4, 5, 6, 7, 8, 9, 10, 11, 12, 13, 14, 15, 16, 17, 18, 19, 20, 21, 22, 23, 24, 25, 26, 27, 28, 29, 30, 31, 32, 33, 34, 35, 36, 37, 38, 39, 40, 41, 42, 43, 44, 45, 46, 47, 48, 49, 50, 51, 52, 53, 54, 55, 56, 57, 58, 59, 60, 61, 62, 63, 64, 65, 66, 67, 68, 69, 70, 71, 72, 73, 74, 75, 76, 77, 78, 79, 80, 81, 82, 83, 84, 85, 86, 87, 88, 89, 90, 91, 92, 93, 94, 95, 96, 97, 98, 99, 100, 101, 102, 103, 104, 105, 106, 107, 108, 109, 110, 111, 112, 113, 114, 115, 116, 117, 118, 119, 120, 121, 122, 123, 124, 125, 126, 127, 128, 129, 130, 131, 132, 133, 134, 135, 136, 137, 138, 139, 140, 141, 142, 143, 144, 145, 146, 147, 148, 149, 150, 151, 152, 153, 154, 155, 156, 157, 158, 159, 160, 161, 162, 163, 164, 165, 166, 167, 168, 169, 170, 171, 172, 173, 174, 175, 176, 177, 178, 179, 180, 181, 182, 183, 184, 185, 186, 187, 188, 189, 190, 191, 192, 193, 194, 195, 196, 197, 198, 199, 200, 201, 202, 203, 204, 205, 206, 207, 208, 209, 210, 211, 212, 213, 214, 215, 216, 217, 218, 219, 220, 221, 222, 223, 224, 225, 226, 227, 228, 229, 230, 231, 232, 233, 234, 235, 236, 237, 238, 239, 240, 241, 242, 243, 244, 245, 246, 247, 248, 249, 250, 251, 252, 253, 254, 255, 256, 257, 258, 259, 260, 261, 262, 263, 264, 265, 266, 267, 268, 269, 270, 271, 272, 273, 274, 275, 276, 277, 278, 279, 280, 281, 282, 283, 284, 285, 286, 287, 288],
      "LargestImagePixelValue": [783, 797, 1045, 796, 751, 735, 1097, 825, 719, 770, 1159, 746, 766, 750, 930, 737, 745, 916, 743, 721, 770, 791, 724, 809, 1279, 1078, 789, 741, 1240, 1433, 1103, 725, 764, 763, 751, 760, 1135, 723, 766, 753, 744, 1384, 729, 764, 728, 792, 754, 749, 774, 745, 760, 786, 1283, 1183, 738, 782, 752, 1109, 752, 752, 1357, 743, 759, 766, 729, 780, 760, 757, 779, 786, 1141, 784, 734, 783, 1272, 757, 764, 772, 734, 770, 754, 756, 773, 732, 1405, 1021, 738, 761, 1434, 821, 792, 766, 1298, 902, 744, 761, 743, 749, 771, 801, 757, 755, 895, 763, 731, 804, 742, 764, 878, 1411, 939, 969, 1473, 1102, 739, 1106, 1316, 749, 736, 777, 780, 742, 757, 1140, 716, 776, 759, 721, 763, 738, 832, 729, 748, 758, 722, 781, 733, 736, 749, 929, 875, 737, 760, 739, 778, 803, 753, 710, 767, 1208, 766, 773, 1334, 794, 781, 1081, 1419, 1109, 775, 815, 931, 734, 817, 784, 706, 806, 764, 1060, 777, 743, 806, 750, 762, 959, 1457, 746, 733, 742, 740, 797, 1378, 1161, 880, 755, 1338, 747, 754, 796, 1138, 751, 721, 790, 754, 757, 756, 1042, 746, 755, 783, 743, 730, 735, 1063, 707, 768, 908, 737, 782, 766, 803, 749, 773, 1352, 748, 745, 1236, 708, 792, 753, 732, 763, 1234, 744, 742, 745, 746, 728, 839, 1088, 727, 766, 759, 727, 755, 1158, 1125, 798, 1355, 757, 749, 736, 755, 771, 718, 797, 723, 716, 956, 1096, 733, 751, 735, 720, 877, 768, 721, 1330, 1042, 749, 1175, 748, 727, 790, 1320, 717, 758, 752, 707, 728, 736, 768, 778, 715, 740, 770, 1387, 717, 713, 837, 744, 773, 1383, 743, 1191, 1490, 1260, 831, 765],
      "WindowCenter": [365.0, 365.0, 366.0, 364.0, 363.0, 363.0, 366.0, 364.0, 363.0, 363.0, 366.0, 362.0, 363.0, 363.0, 365.0, 362.0, 363.0, 365.0, 363.0, 363.0, 364.0, 364.0, 363.0, 364.0, 366.0, 365.0, 363.0, 362.0, 366.0, 367.0, 367.0, 363.0, 363.0, 362.0, 362.0, 363.0, 365.0, 362.0, 362.0, 362.0, 361.0, 365.0, 361.0, 362.0, 362.0, 363.0, 363.0, 363.0, 364.0, 363.0, 364.0, 364.0, 367.0, 366.0, 363.0, 364.0, 363.0, 366.0, 363.0, 363.0, 367.0, 363.0, 363.0, 363.0, 363.0, 364.0, 364.0, 363.0, 364.0, 364.0, 366.0, 364.0, 363.0, 364.0, 367.0, 363.0, 363.0, 364.0, 363.0, 364.0, 364.0, 364.0, 364.0, 363.0, 367.0, 365.0, 363.0, 363.0, 368.0, 364.0, 364.0, 364.0, 366.0, 364.0, 362.0, 363.0, 362.0, 363.0, 364.0, 364.0, 363.0, 363.0, 364.0, 363.0, 363.0, 364.0, 364.0, 364.0, 365.0, 368.0, 365.0, 365.0, 368.0, 366.0, 362.0, 365.0, 366.0, 362.0, 362.0, 363.0, 363.0, 362.0, 362.0, 366.0, 362.0, 363.0, 362.0, 362.0, 362.0, 362.0, 363.0, 362.0, 363.0, 363.0, 362.0, 363.0, 363.0, 363.0, 363.0, 365.0, 365.0, 363.0, 363.0, 363.0, 364.0, 364.0, 364.0, 364.0, 365.0, 367.0, 364.0, 364.0, 367.0, 364.0, 364.0, 366.0, 367.0, 365.0, 363.0, 364.0, 364.0, 362.0, 363.0, 363.0, 362.0, 363.0, 363.0, 366.0, 364.0, 363.0, 364.0, 364.0, 364.0, 365.0, 368.0, 363.0, 363.0, 363.0, 364.0, 364.0, 367.0, 366.0, 364.0, 362.0, 366.0, 362.0, 363.0, 363.0, 366.0, 363.0, 362.0, 364.0, 363.0, 363.0, 363.0, 365.0, 363.0, 363.0, 364.0, 363.0, 363.0, 363.0, 365.0, 362.0, 363.0, 364.0, 363.0, 364.0, 364.0, 363.0, 363.0, 364.0, 367.0, 363.0, 363.0, 367.0, 363.0, 364.0, 363.0, 363.0, 363.0, 367.0, 363.0, 363.0, 363.0, 363.0, 363.0, 364.0, 366.0, 363.0, 363.0, 363.0, 363.0, 364.0, 366.0, 366.0, 363.0, 367.0, 362.0, 362.0, 363.0, 363.0, 364.0, 363.0, 364.0, 363.0, 363.0, 366.0, 366.0, 363.0, 364.0, 364.0, 364.0, 366.0, 364.0, 363.0, 368.0, 366.0, 363.0, 367.0, 363.0, 363.0, 364.0, 367.0, 362.0, 364.0, 364.0, 363.0, 363.0, 364.0, 364.0, 364.0, 363.0, 364.0, 364.0, 368.0, 363.0, 364.0, 366.0, 365.0, 365.0, 368.0, 364.0, 368.0, 368.0, 367.0, 364.0, 363.0],
      "WindowWidth": [781.0, 779.0, 781.0, 777.0, 777.0, 776.0, 780.0, 777.0, 775.0, 776.0, 780.0, 775.0, 776.0, 776.0, 778.0, 775.0, 776.0, 778.0, 776.0, 776.0, 777.0, 777.0, 777.0, 777.0, 780.0, 779.0, 775.0, 775.0, 780.0, 781.0, 781.0, 776.0, 776.0, 775.0, 775.0, 776.0, 779.0, 774.0, 775.0, 775.0, 773.0, 778.0, 773.0, 774.0, 774.0, 776.0, 776.0, 776.0, 777.0, 776.0, 777.0, 777.0, 781.0, 779.0, 775.0, 777.0, 776.0, 780.0, 776.0, 776.0, 781.0, 776.0, 776.0, 776.0, 776.0, 777.0, 777.0, 776.0, 777.0, 778.0, 781.0, 777.0, 776.0, 777.0, 781.0, 776.0, 776.0, 777.0, 776.0, 778.0, 778.0, 778.0, 778.0, 777.0, 782.0, 779.0, 776.0, 776.0, 782.0, 778.0, 778.0, 777.0, 781.0, 778.0, 775.0, 776.0, 775.0, 776.0, 777.0, 777.0, 776.0, 776.0, 778.0, 776.0, 776.0, 778.0, 778.0, 778.0, 779.0, 783.0, 779.0, 779.0, 782.0, 780.0, 775.0, 779.0, 780.0, 774.0, 775.0, 776.0, 775.0, 775.0, 775.0, 779.0, 774.0, 775.0, 775.0, 774.0, 775.0, 775.0, 776.0, 775.0, 776.0, 776.0, 775.0, 776.0, 776.0, 776.0, 777.0, 779.0, 779.0, 777.0, 776.0, 777.0, 778.0, 779.0, 778.0, 778.0, 779.0, 782.0, 778.0, 777.0, 782.0, 777.0, 777.0, 780.0, 781.0, 779.0, 776.0, 776.0, 777.0, 775.0, 776.0, 776.0, 775.0, 776.0, 776.0, 780.0, 777.0, 777.0, 778.0, 777.0, 777.0, 779.0, 782.0, 776.0, 777.0, 777.0, 777.0, 778.0, 782.0, 780.0, 777.0, 775.0, 780.0, 775.0, 776.0, 777.0, 779.0, 776.0, 775.0, 777.0, 775.0, 776.0, 776.0, 779.0, 776.0, 776.0, 777.0, 776.0, 776.0, 776.0, 779.0, 775.0, 776.0, 777.0, 776.0, 777.0, 777.0, 777.0, 776.0, 777.0, 781.0, 776.0, 776.0, 781.0, 776.0, 777.0, 776.0, 777.0, 776.0, 781.0, 776.0, 776.0, 776.0, 776.0, 777.0, 778.0, 780.0, 776.0, 776.0, 776.0, 777.0, 777.0, 781.0, 779.0, 776.0, 781.0, 775.0, 775.0, 776.0, 776.0, 777.0, 776.0, 778.0, 777.0, 777.0, 780.0, 780.0, 776.0, 777.0, 778.0, 778.0, 780.0, 778.0, 777.0, 783.0, 780.0, 777.0, 781.0, 776.0, 776.0, 777.0, 781.0, 775.0, 777.0, 777.0, 776.0, 777.0, 778.0, 779.0, 779.0, 777.0, 778.0, 779.0, 783.0, 777.0, 778.0, 781.0, 779.0, 780.0, 784.0, 778.0, 783.0, 783.0, 781.0, 778.0, 777.0]
    },
    "slices": {}
  }
}