{
  "AcquisitionMatrixPE": 96,
  "AcquisitionNumber": 1,
  "AcquisitionTime": "16:22:43.665000",
  "BandwidthPerPixelPhaseEncode": 18.939,
  "BaseResolution": 96,
  "BodyPartExamined": "BRAIN",
  "ConsistencyInfo": "N4_VE11C_LATEST_20160120",
  "ConversionSoftware": "dcm2niix",
  "ConversionSoftwareVersion": "v1.0.20170923 (OpenJPEG build) GCC6.3.0",
  "DerivedVendorReportedEchoSpacing": 0.000550011,
  "DeviceSerialNumber": "66112",
  "DwellTime": 2.2e-06,
  "EchoTime": 0.033,
  "EchoTrainLength": 96,
  "EffectiveEchoSpacing": 0.000550011,
  "FlipAngle": 59,
  "ImageType": [
    "ORIGINAL",
    "PRIMARY",
    "FMRI",
    "NONE",
    "ND",
    "NORM",
    "MOSAIC"
],
  "InstitutionAddress": "Maynard_3_Hanover_NH_US_03755",
  "InstitutionName": "Dartmouth_College_-_PBS",
  "MagneticFieldStrength": 3,
  "Manufacturer": "Siemens",
  "ManufacturersModelName": "Prisma",
  "Modality": "MR",
  "MultibandAccelerationFactor": 4,
  "PartialFourier": 1,
  "PercentPhaseFOV": 100,
  "PhaseEncodingDirection": "j-",
  "PhaseEncodingSteps": 96,
  "PhaseResolution": 1,
  "ProcedureStepDescription": "Gobbini_Matteo_1038_hyperface",
  "ProtocolName": "func_run-01_task-localizer",
  "PulseSequenceDetails": "%SiemensSeq%_ep2d_bold",
  "ReceiveCoilActiveElements": "HEA;HEP",
  "ReceiveCoilName": "Head_32",
  "ReconMatrixPE": 96,
  "RepetitionTime": 1,
  "ScanOptions": "FS",
  "ScanningSequence": "EP",
  "SequenceName": "_epfid2d1_96",
  "SequenceVariant": "SK",
  "SeriesDescription": "func_run-01_task-localizer",
  "SliceTiming": [0.735, 0, 0.49, 0.08, 0.57, 0.1625, 0.6525, 0.325, 0.815, 0.4075, 0.8975, 0.245, 0.735, 0, 0.49, 0.08, 0.57, 0.1625, 0.6525, 0.325, 0.815, 0.4075, 0.8975, 0.245, 0.735, 0, 0.49, 0.08, 0.57, 0.1625, 0.6525, 0.325, 0.815, 0.4075, 0.8975, 0.245, 0.735, 0, 0.49, 0.08, 0.57, 0.1625, 0.6525, 0.325, 0.815, 0.4075, 0.8975, 0.245],
  "SoftwareVersions": "syngo_MR_E11",
  "StationName": "AWP66112",
  "TotalReadoutTime": 0.0522511,
  "dcmmeta_affine": [
    [-2.496321201324463, 0.04531674459576607, 0.12777525186538696, 117.61424255371094],
    [0.06510129570960999, 2.467456102371216, 0.39676445722579956, -111.07263946533203],
    [0.11891989409923553, -0.39950796961784363, 2.465005397796631, -46.509521484375],
    [0.0, 0.0, 0.0, 1.0]
],
  "dcmmeta_reorient_transform": [
    [0.0, -1.0, 0.0, 95.0],
    [1.0, 0.0, 0.0, 0.0],
    [0.0, 0.0, 1.0, 0.0],
    [0.0, 0.0, 0.0, 1.0]
],
  "dcmmeta_shape": [96, 96, 48, 236],
  "dcmmeta_slice_dim": 2,
  "dcmmeta_version": 0.6,
  "global": {
    "const": {
      "AccessionNumber": "A001173",
      "AcquisitionMatrix": [96, 0, 0, 96],
      "AngioFlag": "N",
      "BitsAllocated": 16,
      "BitsStored": 12,
      "BodyPartExamined": "BRAIN",
      "Columns": 672,
      "EchoNumbers": 1,
      "EchoTime": 33.0,
      "EchoTrainLength": 96,
      "FlipAngle": 59.0,
      "HighBit": 11,
      "ImageOrientationPatient": [0.99852850767904, -0.0260405195249, 0.04756795870282, 0.01812669767366, 0.98698245361245, 0.15980318861838],
      "ImagePositionPatient": [-853.91107850762, -815.21388393532, -233.77000319073],
      "ImageType": [
        "ORIGINAL",
        "PRIMARY",
        "FMRI",
        "NONE",
        "ND",
        "NORM",
        "MOSAIC"
],
      "ImagedNucleus": "1H",
      "ImagingFrequency": 123.252319,
      "InPlanePhaseEncodingDirection": "COL",
      "MRAcquisitionType": "2D",
      "MagneticFieldStrength": 3.0,
      "Manufacturer": "SIEMENS",
      "ManufacturerModelName": "Prisma",
      "Modality": "MR",
      "NumberOfAverages": 1.0,
      "NumberOfPhaseEncodingSteps": 96,
      "PercentPhaseFieldOfView": 100.0,
      "PercentSampling": 100.0,
      "PerformedProcedureStepStartTime": "161024.008000",
      "PhotometricInterpretation": "MONOCHROME2",
      "PixelBandwidth": 2365.0,
      "PixelRepresentation": 0,
      "PixelSpacing": [2.5, 2.5],
      "PositionReferenceIndicator": "",
      "ProtocolName": "func_run-01_task-localizer",
      "RepetitionTime": 1000.0,
      "Rows": 672,
      "SAR": 0.04136856921846,
      "SamplesPerPixel": 1,
      "ScanOptions": "FS",
      "ScanningSequence": "EP",
      "SequenceName": "*epfid2d1_96",
      "SequenceVariant": "SK",
      "SeriesDescription": "func_run-01_task-localizer",
      "SeriesNumber": 8,
      "SeriesTime": "162245.285000",
      "SliceLocation": -57.475082137786,
      "SliceThickness": 2.5,
      "SmallestImagePixelValue": 0,
      "SoftwareVersions": "syngo MR E11",
      "SpacingBetweenSlices": 2.4999999831241,
      "SpecificCharacterSet": "ISO_IR 100",
      "StudyID": "1",
      "StudyTime": "161023.913000",
      "TransmitCoilName": "Body",
      "VariableFlipAngleFlag": "N",
      "WindowCenterWidthExplanation": "Algo1",
      "dBdt": 0.0},
    "slices": {}
  },
  "time": {
    "samples": {
      "AcquisitionNumber": [1, 2, 3, 4, 5, 6, 7, 8, 9, 10, 11, 12, 13, 14, 15, 16, 17, 18, 19, 20, 21, 22, 23, 24, 25, 26, 27, 28, 29, 30, 31, 32, 33, 34, 35, 36, 37, 38, 39, 40, 41, 42, 43, 44, 45, 46, 47, 48, 49, 50, 51, 52, 53, 54, 55, 56, 57, 58, 59, 60, 61, 62, 63, 64, 65, 66, 67, 68, 69, 70, 71, 72, 73, 74, 75, 76, 77, 78, 79, 80, 81, 82, 83, 84, 85, 86, 87, 88, 89, 90, 91, 92, 93, 94, 95, 96, 97, 98, 99, 100, 101, 102, 103, 104, 105, 106, 107, 108, 109, 110, 111, 112, 113, 114, 115, 116, 117, 118, 119, 120, 121, 122, 123, 124, 125, 126, 127, 128, 129, 130, 131, 132, 133, 134, 135, 136, 137, 138, 139, 140, 141, 142, 143, 144, 145, 146, 147, 148, 149, 150, 151, 152, 153, 154, 155, 156, 157, 158, 159, 160, 161, 162, 163, 164, 165, 166, 167, 168, 169, 170, 171, 172, 173, 174, 175, 176, 177, 178, 179, 180, 181, 182, 183, 184, 185, 186, 187, 188, 189, 190, 191, 192, 193, 194, 195, 196, 197, 198, 199, 200, 201, 202, 203, 204, 205, 206, 207, 208, 209, 210, 211, 212, 213, 214, 215, 216, 217, 218, 219, 220, 221, 222, 223, 224, 225, 226, 227, 228, 229, 230, 231, 232, 233, 234, 235, 236],
      "AcquisitionTime": ["162243.665000", "162244.665000", "162245.665000", "162246.665000", "162247.665000", "162248.665000", "162249.665000", "162250.665000", "162251.665000", "162252.665000", "162253.665000", "162254.665000", "162255.665000", "162256.665000", "162257.665000", "162258.665000", "162259.665000", "162300.665000", "162301.665000", "162302.665000", "162303.665000", "162304.665000", "162305.665000", "162306.665000", "162307.665000", "162308.665000", "162309.665000", "162310.665000", "162311.665000", "162312.665000", "162313.665000", "162314.665000", "162315.665000", "162316.665000", "162317.665000", "162318.665000", "162319.665000", "162320.665000", "162321.665000", "162322.665000", "162323.665000", "162324.665000", "162325.665000", "162326.665000", "162327.665000", "162328.665000", "162329.665000", "162330.665000", "162331.665000", "162332.665000", "162333.665000", "162334.665000", "162335.665000", "162336.665000", "162337.665000", "162338.665000", "162339.665000", "162340.665000", "162341.665000", "162342.665000", "162343.665000", "162344.665000", "162345.665000", "162346.665000", "162347.665000", "162348.665000", "162349.665000", "162350.665000", "162351.665000", "162352.665000", "162353.665000", "162354.665000", "162355.665000", "162356.665000", "162357.665000", "162358.665000", "162359.665000", "162400.665000", "162401.665000", "162402.665000", "162403.665000", "162404.665000", "162405.665000", "162406.665000", "162407.665000", "162408.665000", "162409.665000", "162410.665000", "162411.665000", "162412.665000", "162413.665000", "162414.665000", "162415.665000", "162416.665000", "162417.665000", "162418.665000", "162419.665000", "162420.665000", "162421.665000", "162422.665000", "162423.665000", "162424.665000", "162425.665000", "162426.665000", "162427.665000", "162428.665000", "162429.665000", "162430.665000", "162431.665000", "162432.665000", "162433.665000", "162434.665000", "162435.665000", "162436.665000", "162437.665000", "162438.665000", "162439.665000", "162440.665000", "162441.665000", "162442.665000", "162443.665000", "162444.665000", "162445.665000", "162446.665000", "162447.665000", "162448.665000", "162449.665000", "162450.665000", "162451.665000", "162452.665000", "162453.665000", "162454.665000", "162455.665000", "162456.665000", "162457.665000", "162458.665000", "162459.665000", "162500.665000", "162501.665000", "162502.665000", "162503.665000", "162504.665000", "162505.665000", "162506.665000", "162507.665000", "162508.665000", "162509.665000", "162510.665000", "162511.665000", "162512.665000", "162513.665000", "162514.665000", "162515.665000", "162516.665000", "162517.665000", "162518.665000", "162519.665000", "162520.665000", "162521.665000", "162522.665000", "162523.665000", "162524.665000", "162525.665000", "162526.665000", "162527.665000", "162528.665000", "162529.665000", "162530.665000", "162531.665000", "162532.665000", "162533.665000", "162534.665000", "162535.665000", "162536.665000", "162537.665000", "162538.665000", "162539.665000", "162540.665000", "162541.665000", "162542.665000", "162543.665000", "162544.665000", "162545.665000", "162546.665000", "162547.665000", "162548.665000", "162549.665000", "162550.665000", "162551.665000", "162552.665000", "162553.665000", "162554.665000", "162555.665000", "162556.665000", "162557.665000", "162558.665000", "162559.665000", "162600.665000", "162601.665000", "162602.665000", "162603.665000", "162604.665000", "162605.665000", "162606.665000", "162607.665000", "162608.665000", "162609.665000", "162610.665000", "162611.665000", "162612.665000", "162613.665000", "162614.665000", "162615.665000", "162616.665000", "162617.665000", "162618.665000", "162619.665000", "162620.665000", "162621.665000", "162622.665000", "162623.665000", "162624.665000", "162625.665000", "162626.665000", "162627.665000", "162628.665000", "162629.665000", "162630.665000", "162631.665000", "162632.665000", "162633.665000", "162634.665000", "162635.665000", "162636.665000", "162637.665000", "162638.665000"],
      "ContentTime": ["162245.289000", "162246.118000", "162247.123000", "162248.090000", "162249.099000", "162250.089000", "162251.110000", "162252.079000", "162253.104000", "162254.101000", "162255.088000", "162256.109000", "162257.072000", "162258.042000", "162259.071000", "162300.115000", "162301.073000", "162302.097000", "162303.087000", "162304.069000", "162305.056000", "162306.087000", "162307.080000", "162308.076000", "162309.090000", "162310.107000", "162311.078000", "162312.087000", "162313.070000", "162314.097000", "162315.079000", "162316.099000", "162317.079000", "162318.092000", "162319.077000", "162320.092000", "162321.083000", "162322.037000", "162323.074000", "162324.073000", "162325.090000", "162326.066000", "162327.097000", "162328.108000", "162329.068000", "162330.073000", "162331.148000", "162332.061000", "162333.096000", "162334.092000", "162335.046000", "162336.062000", "162337.061000", "162338.063000", "162339.126000", "162340.097000", "162341.093000", "162342.079000", "162343.070000", "162344.050000", "162345.062000", "162346.070000", "162347.082000", "162348.055000", "162349.091000", "162350.068000", "162351.066000", "162352.076000", "162353.076000", "162354.075000", "162355.059000", "162356.050000", "162357.071000", "162358.081000", "162359.076000", "162400.053000", "162401.071000", "162402.062000", "162403.078000", "162404.096000", "162405.073000", "162406.087000", "162407.075000", "162408.072000", "162409.067000", "162410.062000", "162411.082000", "162412.075000", "162413.077000", "162414.057000", "162415.104000", "162416.099000", "162417.060000", "162418.099000", "162419.075000", "162420.075000", "162421.077000", "162422.098000", "162423.063000", "162424.052000", "162425.111000", "162426.059000", "162427.076000", "162428.061000", "162429.081000", "162430.042000", "162431.086000", "162432.077000", "162433.107000", "162434.099000", "162435.077000", "162436.070000", "162437.089000", "162438.119000", "162439.077000", "162440.085000", "162441.119000", "162442.081000", "162443.104000", "162444.103000", "162445.067000", "162446.108000", "162447.089000", "162448.076000", "162449.079000", "162450.066000", "162451.072000", "162452.072000", "162453.087000", "162454.086000", "162455.071000", "162456.066000", "162457.089000", "162458.084000", "162459.070000", "162500.072000", "162501.066000", "162502.074000", "162503.062000", "162504.095000", "162505.034000", "162506.058000", "162507.093000", "162508.119000", "162509.065000", "162510.114000", "162511.075000", "162512.049000", "162513.090000", "162514.100000", "162515.070000", "162516.076000", "162517.101000", "162518.133000", "162519.072000", "162520.076000", "162521.126000", "162522.081000", "162523.062000", "162524.068000", "162525.063000", "162526.137000", "162527.108000", "162528.077000", "162529.091000", "162530.070000", "162531.081000", "162532.081000", "162533.077000", "162534.085000", "162535.118000", "162536.056000", "162537.085000", "162538.084000", "162539.087000", "162540.070000", "162541.068000", "162542.077000", "162543.091000", "162544.083000", "162545.094000", "162546.084000", "162547.072000", "162548.048000", "162549.086000", "162550.084000", "162551.047000", "162552.088000", "162553.087000", "162554.047000", "162555.086000", "162556.046000", "162557.111000", "162558.126000", "162559.073000", "162600.109000", "162601.071000", "162602.072000", "162603.083000", "162604.049000", "162605.075000", "162606.071000", "162607.079000", "162608.041000", "162609.124000", "162610.088000", "162611.069000", "162612.079000", "162613.098000", "162614.069000", "162615.082000", "162616.064000", "162617.068000", "162618.077000", "162619.115000", "162620.093000", "162621.076000", "162622.046000", "162623.061000", "162624.038000", "162625.089000", "162626.059000", "162627.071000", "162628.064000", "162629.085000", "162630.084000", "162631.081000", "162632.082000", "162633.088000", "162634.114000", "162635.085000", "162636.115000", "162637.093000", "162638.143000", "162639.091000", "162640.099000"],
      "InstanceCreationTime": ["162245.289000", "162246.118000", "162247.123000", "162248.090000", "162249.099000", "162250.089000", "162251.110000", "162252.079000", "162253.104000", "162254.101000", "162255.088000", "162256.109000", "162257.072000", "162258.042000", "162259.071000", "162300.115000", "162301.073000", "162302.097000", "162303.087000", "162304.069000", "162305.056000", "162306.087000", "162307.080000", "162308.076000", "162309.090000", "162310.107000", "162311.078000", "162312.087000", "162313.070000", "162314.097000", "162315.079000", "162316.099000", "162317.079000", "162318.092000", "162319.077000", "162320.092000", "162321.083000", "162322.037000", "162323.074000", "162324.073000", "162325.090000", "162326.066000", "162327.097000", "162328.108000", "162329.068000", "162330.073000", "162331.148000", "162332.061000", "162333.096000", "162334.092000", "162335.046000", "162336.062000", "162337.061000", "162338.063000", "162339.126000", "162340.097000", "162341.093000", "162342.079000", "162343.070000", "162344.050000", "162345.062000", "162346.070000", "162347.082000", "162348.055000", "162349.091000", "162350.068000", "162351.066000", "162352.076000", "162353.076000", "162354.075000", "162355.059000", "162356.050000", "162357.071000", "162358.081000", "162359.076000", "162400.053000", "162401.071000", "162402.062000", "162403.078000", "162404.096000", "162405.073000", "162406.087000", "162407.075000", "162408.072000", "162409.067000", "162410.062000", "162411.082000", "162412.075000", "162413.077000", "162414.057000", "162415.104000", "162416.099000", "162417.060000", "162418.099000", "162419.075000", "162420.075000", "162421.077000", "162422.098000", "162423.063000", "162424.052000", "162425.111000", "162426.059000", "162427.076000", "162428.061000", "162429.081000", "162430.042000", "162431.086000", "162432.077000", "162433.107000", "162434.099000", "162435.077000", "162436.070000", "162437.089000", "162438.119000", "162439.077000", "162440.085000", "162441.119000", "162442.081000", "162443.104000", "162444.103000", "162445.067000", "162446.108000", "162447.089000", "162448.076000", "162449.079000", "162450.066000", "162451.072000", "162452.072000", "162453.087000", "162454.086000", "162455.071000", "162456.066000", "162457.089000", "162458.084000", "162459.070000", "162500.072000", "162501.066000", "162502.074000", "162503.062000", "162504.095000", "162505.034000", "162506.058000", "162507.093000", "162508.119000", "162509.065000", "162510.114000", "162511.075000", "162512.049000", "162513.090000", "162514.100000", "162515.070000", "162516.076000", "162517.101000", "162518.133000", "162519.072000", "162520.076000", "162521.126000", "162522.081000", "162523.062000", "162524.068000", "162525.063000", "162526.137000", "162527.108000", "162528.077000", "162529.091000", "162530.070000", "162531.081000", "162532.081000", "162533.077000", "162534.085000", "162535.118000", "162536.056000", "162537.085000", "162538.084000", "162539.087000", "162540.070000", "162541.068000", "162542.077000", "162543.091000", "162544.083000", "162545.094000", "162546.084000", "162547.072000", "162548.048000", "162549.086000", "162550.084000", "162551.047000", "162552.088000", "162553.087000", "162554.047000", "162555.086000", "162556.046000", "162557.111000", "162558.126000", "162559.073000", "162600.109000", "162601.071000", "162602.072000", "162603.083000", "162604.049000", "162605.075000", "162606.071000", "162607.079000", "162608.041000", "162609.124000", "162610.088000", "162611.069000", "162612.079000", "162613.098000", "162614.069000", "162615.082000", "162616.064000", "162617.068000", "162618.077000", "162619.115000", "162620.093000", "162621.076000", "162622.046000", "162623.061000", "162624.038000", "162625.089000", "162626.059000", "162627.071000", "162628.064000", "162629.085000", "162630.084000", "162631.081000", "162632.082000", "162633.088000", "162634.114000", "162635.085000", "162636.115000", "162637.093000", "162638.143000", "162639.091000", "162640.099000"],
      "InstanceNumber": [1, 2, 3, 4, 5, 6, 7, 8, 9, 10, 11, 12, 13, 14, 15, 16, 17, 18, 19, 20, 21, 22, 23, 24, 25, 26, 27, 28, 29, 30, 31, 32, 33, 34, 35, 36, 37, 38, 39, 40, 41, 42, 43, 44, 45, 46, 47, 48, 49, 50, 51, 52, 53, 54, 55, 56, 57, 58, 59, 60, 61, 62, 63, 64, 65, 66, 67, 68, 69, 70, 71, 72, 73, 74, 75, 76, 77, 78, 79, 80, 81, 82, 83, 84, 85, 86, 87, 88, 89, 90, 91, 92, 93, 94, 95, 96, 97, 98, 99, 100, 101, 102, 103, 104, 105, 106, 107, 108, 109, 110, 111, 112, 113, 114, 115, 116, 117, 118, 119, 120, 121, 122, 123, 124, 125, 126, 127, 128, 129, 130, 131, 132, 133, 134, 135, 136, 137, 138, 139, 140, 141, 142, 143, 144, 145, 146, 147, 148, 149, 150, 151, 152, 153, 154, 155, 156, 157, 158, 159, 160, 161, 162, 163, 164, 165, 166, 167, 168, 169, 170, 171, 172, 173, 174, 175, 176, 177, 178, 179, 180, 181, 182, 183, 184, 185, 186, 187, 188, 189, 190, 191, 192, 193, 194, 195, 196, 197, 198, 199, 200, 201, 202, 203, 204, 205, 206, 207, 208, 209, 210, 211, 212, 213, 214, 215, 216, 217, 218, 219, 220, 221, 222, 223, 224, 225, 226, 227, 228, 229, 230, 231, 232, 233, 234, 235, 236],
      "LargestImagePixelValue": [960, 1120, 744, 1414, 1324, 873, 782, 1472, 720, 713, 1299, 1378, 732, 726, 1429, 831, 747, 1418, 919, 710, 767, 786, 719, 803, 732, 719, 800, 755, 706, 833, 736, 724, 813, 849, 736, 741, 746, 740, 801, 1403, 777, 787, 1366, 769, 766, 735, 735, 741, 839, 751, 737, 757, 775, 703, 762, 787, 696, 697, 908, 785, 754, 755, 815, 727, 777, 789, 710, 841, 723, 761, 1286, 771, 793, 996, 728, 783, 862, 747, 769, 733, 706, 773, 723, 773, 756, 766, 735, 740, 888, 1302, 745, 1349, 1484, 890, 1066, 1417, 717, 723, 980, 691, 747, 938, 757, 716, 835, 1080, 722, 1002, 1053, 707, 744, 1231, 691, 703, 806, 765, 733, 1372, 764, 782, 1105, 964, 747, 1363, 1266, 690, 731, 748, 734, 807, 738, 789, 794, 723, 728, 786, 780, 706, 754, 825, 693, 719, 777, 758, 734, 804, 748, 729, 806, 717, 803, 997, 713, 752, 1087, 871, 733, 1414, 833, 708, 794, 757, 716, 814, 779, 703, 793, 736, 738, 788, 731, 752, 795, 1147, 696, 744, 1231, 714, 722, 1325, 722, 765, 1312, 781, 757, 944, 695, 724, 737, 772, 779, 788, 752, 1187, 1317, 997, 1333, 1341, 947, 1117, 1061, 741, 732, 720, 746, 794, 757, 728, 876, 772, 703, 787, 814, 732, 772, 752, 692, 843, 751, 787, 1481, 1107, 732, 1413, 907, 796, 1128, 712, 783, 781, 792, 705, 789, 838, 842, 1381],
      "WindowCenter": [366.0, 366.0, 362.0, 366.0, 366.0, 363.0, 363.0, 366.0, 361.0, 361.0, 365.0, 365.0, 361.0, 361.0, 366.0, 362.0, 361.0, 365.0, 363.0, 361.0, 361.0, 362.0, 361.0, 362.0, 362.0, 362.0, 363.0, 363.0, 362.0, 363.0, 362.0, 362.0, 363.0, 363.0, 363.0, 363.0, 363.0, 363.0, 363.0, 366.0, 363.0, 363.0, 366.0, 362.0, 362.0, 362.0, 362.0, 362.0, 363.0, 362.0, 362.0, 362.0, 362.0, 361.0, 363.0, 362.0, 362.0, 362.0, 364.0, 363.0, 363.0, 363.0, 363.0, 362.0, 363.0, 363.0, 362.0, 363.0, 362.0, 363.0, 366.0, 363.0, 363.0, 364.0, 362.0, 363.0, 363.0, 362.0, 362.0, 362.0, 362.0, 362.0, 362.0, 363.0, 362.0, 363.0, 363.0, 363.0, 364.0, 366.0, 363.0, 366.0, 366.0, 363.0, 364.0, 366.0, 361.0, 361.0, 363.0, 361.0, 362.0, 364.0, 362.0, 361.0, 363.0, 365.0, 362.0, 364.0, 364.0, 361.0, 362.0, 365.0, 361.0, 362.0, 363.0, 363.0, 362.0, 365.0, 361.0, 362.0, 364.0, 363.0, 361.0, 365.0, 365.0, 361.0, 361.0, 361.0, 361.0, 363.0, 361.0, 362.0, 363.0, 361.0, 361.0, 362.0, 362.0, 361.0, 362.0, 362.0, 361.0, 361.0, 362.0, 362.0, 362.0, 363.0, 362.0, 362.0, 363.0, 362.0, 363.0, 364.0, 362.0, 363.0, 365.0, 363.0, 362.0, 366.0, 362.0, 361.0, 363.0, 362.0, 362.0, 363.0, 363.0, 361.0, 363.0, 362.0, 362.0, 363.0, 362.0, 362.0, 363.0, 365.0, 361.0, 362.0, 365.0, 362.0, 362.0, 366.0, 362.0, 362.0, 365.0, 362.0, 361.0, 363.0, 361.0, 361.0, 362.0, 363.0, 363.0, 363.0, 363.0, 365.0, 366.0, 364.0, 366.0, 365.0, 364.0, 364.0, 364.0, 361.0, 361.0, 361.0, 361.0, 363.0, 362.0, 362.0, 363.0, 362.0, 361.0, 362.0, 363.0, 362.0, 362.0, 362.0, 362.0, 363.0, 363.0, 363.0, 367.0, 365.0, 361.0, 365.0, 363.0, 362.0, 364.0, 361.0, 361.0, 361.0, 362.0, 361.0, 362.0, 363.0, 363.0, 365.0],
      "WindowWidth": [781.0, 780.0, 775.0, 780.0, 779.0, 776.0, 775.0, 779.0, 773.0, 773.0, 778.0, 778.0, 773.0, 773.0, 779.0, 774.0, 773.0, 778.0, 775.0, 773.0, 772.0, 773.0, 773.0, 774.0, 774.0, 774.0, 775.0, 775.0, 775.0, 776.0, 774.0, 774.0, 776.0, 776.0, 775.0, 775.0, 775.0, 775.0, 776.0, 780.0, 775.0, 775.0, 779.0, 774.0, 774.0, 774.0, 774.0, 774.0, 775.0, 773.0, 774.0, 774.0, 774.0, 773.0, 775.0, 775.0, 774.0, 774.0, 777.0, 775.0, 775.0, 775.0, 775.0, 774.0, 775.0, 775.0, 774.0, 776.0, 774.0, 775.0, 779.0, 775.0, 775.0, 777.0, 774.0, 775.0, 776.0, 774.0, 774.0, 774.0, 774.0, 774.0, 774.0, 775.0, 775.0, 776.0, 775.0, 775.0, 777.0, 780.0, 775.0, 779.0, 779.0, 775.0, 777.0, 779.0, 773.0, 773.0, 776.0, 773.0, 774.0, 776.0, 774.0, 773.0, 776.0, 778.0, 774.0, 777.0, 777.0, 773.0, 774.0, 778.0, 773.0, 774.0, 775.0, 775.0, 774.0, 778.0, 773.0, 774.0, 777.0, 776.0, 773.0, 778.0, 777.0, 771.0, 773.0, 773.0, 773.0, 775.0, 773.0, 773.0, 775.0, 773.0, 773.0, 773.0, 774.0, 773.0, 774.0, 774.0, 772.0, 773.0, 774.0, 774.0, 774.0, 775.0, 774.0, 774.0, 775.0, 774.0, 775.0, 777.0, 774.0, 775.0, 778.0, 776.0, 774.0, 779.0, 774.0, 773.0, 775.0, 774.0, 774.0, 775.0, 775.0, 773.0, 775.0, 774.0, 774.0, 775.0, 774.0, 774.0, 775.0, 778.0, 773.0, 774.0, 779.0, 774.0, 774.0, 779.0, 774.0, 774.0, 778.0, 773.0, 773.0, 775.0, 772.0, 773.0, 774.0, 775.0, 776.0, 776.0, 776.0, 779.0, 780.0, 777.0, 779.0, 778.0, 776.0, 777.0, 777.0, 773.0, 773.0, 773.0, 773.0, 775.0, 774.0, 773.0, 775.0, 774.0, 773.0, 774.0, 775.0, 774.0, 775.0, 774.0, 774.0, 776.0, 775.0, 775.0, 780.0, 778.0, 773.0, 778.0, 775.0, 773.0, 777.0, 772.0, 772.0, 773.0, 773.0, 772.0, 774.0, 775.0, 775.0, 778.0]
    },
    "slices": {}
  }
}