{
  "AcquisitionMatrixPE": 120,
  "AcquisitionNumber": 1,
  "AcquisitionTime": "11:07:55.497500",
  "BandwidthPerPixelPhaseEncode": 13.889,
  "BaseResolution": 120,
  "BodyPartExamined": "BRAIN",
  "ConsistencyInfo": "N4_VE11C_LATEST_20160120",
  "ConversionSoftware": "dcm2niix",
  "ConversionSoftwareVersion": "v1.0.20170923 (OpenJPEG build) GCC6.3.0",
  "DerivedVendorReportedEchoSpacing": 0.000599995,
  "DeviceSerialNumber": "66112",
  "DwellTime": 2e-06,
  "EchoTime": 0.103,
  "EchoTrainLength": 120,
  "EffectiveEchoSpacing": 0.000599995,
  "FlipAngle": 90,
  "ImageType": [
    "ORIGINAL",
    "PRIMARY",
    "DIFFUSION",
    "NONE",
    "ND",
    "NORM",
    "MOSAIC"
  ],
  "InstitutionAddress": "Maynard_3_Hanover_NH_US_03755",
  "InstitutionName": "Dartmouth_College_-_PBS",
  "MagneticFieldStrength": 3,
  "Manufacturer": "Siemens",
  "ManufacturersModelName": "Prisma",
  "Modality": "MR",
  "MultibandAccelerationFactor": 4,
  "PercentPhaseFOV": 100,
  "PhaseEncodingDirection": "j-",
  "PhaseEncodingSteps": 120,
  "PhaseResolution": 1,
  "ProcedureStepDescription": "Gobbini_Matteo_1038_hyperface",
  "ProtocolName": "dwi_acq-2.0mmXhardi96Xsms4X11b0",
  "PulseSequenceDetails": "%SiemensSeq%_ep2d_diff",
  "ReceiveCoilActiveElements": "HEA;HEP",
  "ReceiveCoilName": "Head_32",
  "ReconMatrixPE": 120,
  "RepetitionTime": 2.6,
  "ScanOptions": "FS",
  "ScanningSequence": "EP",
  "SequenceName": "_ep_b0",
  "SequenceVariant": "SK_SP",
  "SeriesDescription": "dwi_acq-2.0mmXhardi96Xsms4X11b0",
  "SliceTiming": [
    1.935,
    0,
    1.29,
    0.1625,
    1.4525,
    0.3225,
    1.6125,
    0.485,
    1.775,
    0.8075,
    2.0975,
    0.9675,
    2.2575,
    1.13,
    2.42,
    0.645,
    1.935,
    0,
    1.29,
    0.1625,
    1.4525,
    0.3225,
    1.6125,
    0.485,
    1.775,
    0.8075,
    2.0975,
    0.9675,
    2.2575,
    1.13,
    2.42,
    0.645,
    1.935,
    0,
    1.29,
    0.1625,
    1.4525,
    0.3225,
    1.6125,
    0.485,
    1.775,
    0.8075,
    2.0975,
    0.9675,
    2.2575,
    1.13,
    2.42,
    0.645,
    1.935,
    0,
    1.29,
    0.1625,
    1.4525,
    0.3225,
    1.6125,
    0.485,
    1.775,
    0.8075,
    2.0975,
    0.9675,
    2.2575,
    1.13,
    2.42,
    0.645
  ],
  "SoftwareVersions": "syngo_MR_E11",
  "StationName": "AWP66112",
  "TotalReadoutTime": 0.0713994,
  "dcmmeta_affine": [
    [
      -1.999437928199768,
      0.005234390031546354,
      0.047122493386268616,
      120.19570922851562
    ],
    [
      0.011188806034624577,
      1.9837232828140259,
      0.2543953061103821,
      -103.60685729980469
    ],
    [
      0.04607319086790085,
      -0.25458744168281555,
      1.9831949472427368,
      -74.28842163085938
    ],
    [
      0.0,
      0.0,
      0.0,
      1.0
    ]
  ],
  "dcmmeta_reorient_transform": [
    [
      0.0,
      -1.0,
      0.0,
      119.0
    ],
    [
      1.0,
      0.0,
      0.0,
      0.0
    ],
    [
      0.0,
      0.0,
      1.0,
      0.0
    ],
    [
      0.0,
      0.0,
      0.0,
      1.0
    ]
  ],
  "dcmmeta_shape": [
    120,
    120,
    64,
    107
  ],
  "dcmmeta_slice_dim": 2,
  "dcmmeta_version": 0.6,
  "global": {
    "const": {
      "AccessionNumber": "A001178",
      "AcquisitionMatrix": [
        120,
        0,
        0,
        120
      ],
      "AngioFlag": "N",
      "BitsAllocated": 16,
      "BitsStored": 12,
      "BodyPartExamined": "BRAIN",
      "Columns": 960,
      "EchoNumbers": 1,
      "EchoTime": 103.0,
      "EchoTrainLength": 120,
      "FlipAngle": 90.0,
      "HighBit": 11,
      "ImageOrientationPatient": [
        0.99971896945541,
        -0.0055944028935,
        0.02303659626074,
        0.00261719493057,
        0.99186161276698,
        0.12729372101552
      ],
      "ImagePositionPatient": [
        -962.78097987977,
        -960.92066271389,
        -230.86178994898
      ],
      "ImageType": [
        "ORIGINAL",
        "PRIMARY",
        "DIFFUSION",
        "NONE",
        "ND",
        "NORM",
        "MOSAIC"
      ],
      "ImagedNucleus": "1H",
      "ImagingFrequency": 123.252327,
      "InPlanePhaseEncodingDirection": "COL",
      "MRAcquisitionType": "2D",
      "MagneticFieldStrength": 3.0,
      "Manufacturer": "SIEMENS",
      "ManufacturerModelName": "Prisma",
      "Modality": "MR",
      "NumberOfAverages": 1.0,
      "NumberOfPhaseEncodingSteps": 120,
      "PercentPhaseFieldOfView": 100.0,
      "PercentSampling": 100.0,
      "PerformedProcedureStepStartTime": "101828.004000",
      "PhotometricInterpretation": "MONOCHROME2",
      "PixelBandwidth": 2085.0,
      "PixelRepresentation": 0,
      "PixelSpacing": [
        2.0,
        2.0
      ],
      "PositionReferenceIndicator": "",
      "ProtocolName": "dwi_acq-2.0mmXhardi96Xsms4X11b0",
      "RepetitionTime": 2600.0,
      "Rows": 960,
      "SAR": 0.26405533408652,
      "SamplesPerPixel": 1,
      "ScanOptions": "FS",
      "ScanningSequence": "EP",
      "SequenceVariant": [
        "SK",
        "SP"
      ],
      "SeriesDescription": "dwi_acq-2.0mmXhardi96Xsms4X11b0",
      "SeriesNumber": 65,
      "SeriesTime": "110858.549000",
      "SliceLocation": -84.010798761345,
      "SliceThickness": 2.0,
      "SmallestImagePixelValue": 0,
      "SoftwareVersions": "syngo MR E11",
      "SpacingBetweenSlices": 1.9999999662431,
      "SpecificCharacterSet": "ISO_IR 100",
      "StudyID": "2",
      "StudyTime": "101827.965000",
      "TransmitCoilName": "Body",
      "VariableFlipAngleFlag": "N",
      "WindowCenterWidthExplanation": "Algo1",
      "dBdt": 0.0
    },
    "slices": {}
  },
  "time": {
    "samples": {
      "AcquisitionNumber": [
        1,
        2,
        3,
        4,
        5,
        6,
        7,
        8,
        9,
        10,
        11,
        12,
        13,
        14,
        15,
        16,
        17,
        18,
        19,
        20,
        21,
        22,
        23,
        24,
        25,
        26,
        27,
        28,
        29,
        30,
        31,
        32,
        33,
        34,
        35,
        36,
        37,
        38,
        39,
        40,
        41,
        42,
        43,
        44,
        45,
        46,
        47,
        48,
        49,
        50,
        51,
        52,
        53,
        54,
        55,
        56,
        57,
        58,
        59,
        60,
        61,
        62,
        63,
        64,
        65,
        66,
        67,
        68,
        69,
        70,
        71,
        72,
        73,
        74,
        75,
        76,
        77,
        78,
        79,
        80,
        81,
        82,
        83,
        84,
        85,
        86,
        87,
        88,
        89,
        90,
        91,
        92,
        93,
        94,
        95,
        96,
        97,
        98,
        99,
        100,
        101,
        102,
        103,
        104,
        105,
        106,
        107
      ],
      "AcquisitionTime": [
        "110755.497500",
        "110758.097500",
        "110800.697500",
        "110803.297500",
        "110805.897500",
        "110808.497500",
        "110811.097500",
        "110813.697500",
        "110816.297500",
        "110818.897500",
        "110821.497500",
        "110824.097500",
        "110826.697500",
        "110829.297500",
        "110831.897500",
        "110834.497500",
        "110837.097500",
        "110839.697500",
        "110842.297500",
        "110844.897500",
        "110847.497500",
        "110850.097500",
        "110852.697500",
        "110855.297500",
        "110857.897500",
        "110900.497500",
        "110903.097500",
        "110905.697500",
        "110908.297500",
        "110910.897500",
        "110913.497500",
        "110916.097500",
        "110918.697500",
        "110921.297500",
        "110923.897500",
        "110926.497500",
        "110929.097500",
        "110931.697500",
        "110934.297500",
        "110936.897500",
        "110939.497500",
        "110942.097500",
        "110944.697500",
        "110947.297500",
        "110949.897500",
        "110952.497500",
        "110955.097500",
        "110957.697500",
        "111000.297500",
        "111002.897500",
        "111005.497500",
        "111008.097500",
        "111010.697500",
        "111013.297500",
        "111015.897500",
        "111018.497500",
        "111021.097500",
        "111023.697500",
        "111026.297500",
        "111028.897500",
        "111031.497500",
        "111034.097500",
        "111036.697500",
        "111039.297500",
        "111041.897500",
        "111044.497500",
        "111047.097500",
        "111049.697500",
        "111052.297500",
        "111054.897500",
        "111057.497500",
        "111100.097500",
        "111102.697500",
        "111105.297500",
        "111107.897500",
        "111110.497500",
        "111113.097500",
        "111115.697500",
        "111118.297500",
        "111120.897500",
        "111123.497500",
        "111126.097500",
        "111128.697500",
        "111131.297500",
        "111133.897500",
        "111136.497500",
        "111139.097500",
        "111141.697500",
        "111144.297500",
        "111146.897500",
        "111149.497500",
        "111152.097500",
        "111154.697500",
        "111157.297500",
        "111159.897500",
        "111202.497500",
        "111205.097500",
        "111207.697500",
        "111210.297500",
        "111212.897500",
        "111215.497500",
        "111218.097500",
        "111220.697500",
        "111223.297500",
        "111225.897500",
        "111228.497500",
        "111231.097500"
      ],
      "ContentTime": [
        "110858.553000",
        "110858.556000",
        "110858.560000",
        "110858.563000",
        "110858.566000",
        "110858.569000",
        "110858.572000",
        "110858.576000",
        "110858.586000",
        "110858.589000",
        "110858.593000",
        "110858.599000",
        "110858.602000",
        "110858.605000",
        "110858.609000",
        "110858.620000",
        "110858.623000",
        "110858.627000",
        "110858.630000",
        "110858.633000",
        "110858.636000",
        "110858.639000",
        "110858.642000",
        "110858.645000",
        "110958.548000",
        "110958.552000",
        "110958.555000",
        "110958.558000",
        "110958.561000",
        "110958.564000",
        "110958.577000",
        "110958.580000",
        "110958.584000",
        "110958.587000",
        "110958.590000",
        "110958.593000",
        "110958.596000",
        "110958.599000",
        "110958.603000",
        "110958.606000",
        "110958.609000",
        "110958.612000",
        "110958.615000",
        "110958.618000",
        "110958.621000",
        "110958.625000",
        "110958.628000",
        "111058.549000",
        "111058.553000",
        "111058.556000",
        "111058.559000",
        "111058.577000",
        "111058.580000",
        "111058.583000",
        "111058.586000",
        "111058.589000",
        "111058.592000",
        "111058.595000",
        "111058.599000",
        "111058.602000",
        "111058.605000",
        "111058.608000",
        "111058.611000",
        "111058.615000",
        "111058.618000",
        "111058.621000",
        "111058.624000",
        "111058.628000",
        "111058.631000",
        "111058.634000",
        "111138.548000",
        "111138.551000",
        "111138.555000",
        "111138.558000",
        "111138.561000",
        "111138.564000",
        "111138.567000",
        "111138.570000",
        "111138.574000",
        "111138.577000",
        "111138.580000",
        "111138.583000",
        "111138.586000",
        "111138.589000",
        "111138.593000",
        "111138.596000",
        "111235.393000",
        "111235.396000",
        "111235.399000",
        "111235.403000",
        "111235.406000",
        "111235.409000",
        "111235.412000",
        "111235.415000",
        "111235.418000",
        "111235.421000",
        "111235.424000",
        "111235.427000",
        "111235.431000",
        "111235.434000",
        "111235.437000",
        "111235.440000",
        "111235.443000",
        "111235.447000",
        "111235.450000",
        "111235.453000",
        "111235.456000"
      ],
      "InstanceCreationTime": [
        "110858.553000",
        "110858.556000",
        "110858.560000",
        "110858.563000",
        "110858.566000",
        "110858.569000",
        "110858.572000",
        "110858.576000",
        "110858.586000",
        "110858.589000",
        "110858.593000",
        "110858.599000",
        "110858.602000",
        "110858.605000",
        "110858.609000",
        "110858.620000",
        "110858.623000",
        "110858.627000",
        "110858.630000",
        "110858.633000",
        "110858.636000",
        "110858.639000",
        "110858.642000",
        "110858.645000",
        "110958.548000",
        "110958.552000",
        "110958.555000",
        "110958.558000",
        "110958.561000",
        "110958.564000",
        "110958.577000",
        "110958.580000",
        "110958.584000",
        "110958.587000",
        "110958.590000",
        "110958.593000",
        "110958.596000",
        "110958.599000",
        "110958.603000",
        "110958.606000",
        "110958.609000",
        "110958.612000",
        "110958.615000",
        "110958.618000",
        "110958.621000",
        "110958.625000",
        "110958.628000",
        "111058.549000",
        "111058.553000",
        "111058.556000",
        "111058.559000",
        "111058.577000",
        "111058.580000",
        "111058.583000",
        "111058.586000",
        "111058.589000",
        "111058.592000",
        "111058.595000",
        "111058.599000",
        "111058.602000",
        "111058.605000",
        "111058.608000",
        "111058.611000",
        "111058.615000",
        "111058.618000",
        "111058.621000",
        "111058.624000",
        "111058.628000",
        "111058.631000",
        "111058.634000",
        "111138.548000",
        "111138.551000",
        "111138.555000",
        "111138.558000",
        "111138.561000",
        "111138.564000",
        "111138.567000",
        "111138.570000",
        "111138.574000",
        "111138.577000",
        "111138.580000",
        "111138.583000",
        "111138.586000",
        "111138.589000",
        "111138.593000",
        "111138.596000",
        "111235.393000",
        "111235.396000",
        "111235.399000",
        "111235.403000",
        "111235.406000",
        "111235.409000",
        "111235.412000",
        "111235.415000",
        "111235.418000",
        "111235.421000",
        "111235.424000",
        "111235.427000",
        "111235.431000",
        "111235.434000",
        "111235.437000",
        "111235.440000",
        "111235.443000",
        "111235.447000",
        "111235.450000",
        "111235.453000",
        "111235.456000"
      ],
      "InstanceNumber": [
        1,
        2,
        3,
        4,
        5,
        6,
        7,
        8,
        9,
        10,
        11,
        12,
        13,
        14,
        15,
        16,
        17,
        18,
        19,
        20,
        21,
        22,
        23,
        24,
        25,
        26,
        27,
        28,
        29,
        30,
        31,
        32,
        33,
        34,
        35,
        36,
        37,
        38,
        39,
        40,
        41,
        42,
        43,
        44,
        45,
        46,
        47,
        48,
        49,
        50,
        51,
        52,
        53,
        54,
        55,
        56,
        57,
        58,
        59,
        60,
        61,
        62,
        63,
        64,
        65,
        66,
        67,
        68,
        69,
        70,
        71,
        72,
        73,
        74,
        75,
        76,
        77,
        78,
        79,
        80,
        81,
        82,
        83,
        84,
        85,
        86,
        87,
        88,
        89,
        90,
        91,
        92,
        93,
        94,
        95,
        96,
        97,
        98,
        99,
        100,
        101,
        102,
        103,
        104,
        105,
        106,
        107
      ],
      "LargestImagePixelValue": [
        2513,
        2097,
        408,
        464,
        433,
        433,
        458,
        404,
        441,
        374,
        427,
        2151,
        439,
        382,
        383,
        452,
        442,
        401,
        474,
        447,
        381,
        389,
        2156,
        459,
        460,
        465,
        449,
        413,
        449,
        412,
        451,
        393,
        451,
        2209,
        400,
        467,
        436,
        473,
        423,
        408,
        438,
        405,
        501,
        467,
        2175,
        410,
        384,
        414,
        398,
        447,
        464,
        475,
        430,
        387,
        440,
        2212,
        418,
        409,
        449,
        483,
        436,
        458,
        364,
        439,
        401,
        423,
        2383,
        472,
        480,
        414,
        454,
        481,
        442,
        478,
        412,
        449,
        462,
        2212,
        419,
        440,
        432,
        465,
        429,
        471,
        511,
        436,
        456,
        2358,
        443,
        386,
        428,
        411,
        429,
        436,
        507,
        439,
        438,
        2195,
        496,
        470,
        435,
        474,
        432,
        412,
        448,
        477,
        381
      ],
      "SequenceName": [
        "*ep_b0",
        "*ep_b0",
        "*ep_b1000#2",
        "*ep_b1000#3",
        "*ep_b1000#4",
        "*ep_b1000#5",
        "*ep_b1000#6",
        "*ep_b1000#7",
        "*ep_b1000#8",
        "*ep_b1000#9",
        "*ep_b1000#10",
        "*ep_b0",
        "*ep_b1000#12",
        "*ep_b1000#13",
        "*ep_b1000#14",
        "*ep_b1000#15",
        "*ep_b1000#16",
        "*ep_b1000#17",
        "*ep_b1000#18",
        "*ep_b1000#19",
        "*ep_b1000#20",
        "*ep_b1000#21",
        "*ep_b0",
        "*ep_b1000#23",
        "*ep_b1000#24",
        "*ep_b1000#25",
        "*ep_b1000#26",
        "*ep_b1000#27",
        "*ep_b1000#28",
        "*ep_b1000#29",
        "*ep_b1000#30",
        "*ep_b1000#31",
        "*ep_b1000#32",
        "*ep_b0",
        "*ep_b1000#34",
        "*ep_b1000#35",
        "*ep_b1000#36",
        "*ep_b1000#37",
        "*ep_b1000#38",
        "*ep_b1000#39",
        "*ep_b1000#40",
        "*ep_b1000#41",
        "*ep_b1000#42",
        "*ep_b1000#43",
        "*ep_b0",
        "*ep_b1000#45",
        "*ep_b1000#46",
        "*ep_b1000#47",
        "*ep_b1000#48",
        "*ep_b1000#49",
        "*ep_b1000#50",
        "*ep_b1000#51",
        "*ep_b1000#52",
        "*ep_b1000#53",
        "*ep_b1000#54",
        "*ep_b0",
        "*ep_b1000#56",
        "*ep_b1000#57",
        "*ep_b1000#58",
        "*ep_b1000#59",
        "*ep_b1000#60",
        "*ep_b1000#61",
        "*ep_b1000#62",
        "*ep_b1000#63",
        "*ep_b1000#64",
        "*ep_b1000#65",
        "*ep_b0",
        "*ep_b1000#67",
        "*ep_b1000#68",
        "*ep_b1000#69",
        "*ep_b1000#70",
        "*ep_b1000#71",
        "*ep_b1000#72",
        "*ep_b1000#73",
        "*ep_b1000#74",
        "*ep_b1000#75",
        "*ep_b1000#76",
        "*ep_b0",
        "*ep_b1000#78",
        "*ep_b1000#79",
        "*ep_b1000#80",
        "*ep_b1000#81",
        "*ep_b1000#82",
        "*ep_b1000#83",
        "*ep_b1000#84",
        "*ep_b1000#85",
        "*ep_b1000#86",
        "*ep_b0",
        "*ep_b1000#88",
        "*ep_b1000#89",
        "*ep_b1000#90",
        "*ep_b1000#91",
        "*ep_b1000#92",
        "*ep_b1000#93",
        "*ep_b1000#94",
        "*ep_b1000#95",
        "*ep_b1000#96",
        "*ep_b0",
        "*ep_b1000#98",
        "*ep_b1000#99",
        "*ep_b1000#100",
        "*ep_b1000#101",
        "*ep_b1000#102",
        "*ep_b1000#103",
        "*ep_b1000#104",
        "*ep_b1000#105",
        "*ep_b1000#106"
      ],
      "WindowCenter": [
        259.0,
        243.0,
        97.0,
        99.0,
        97.0,
        99.0,
        98.0,
        97.0,
        100.0,
        96.0,
        98.0,
        243.0,
        99.0,
        97.0,
        97.0,
        98.0,
        98.0,
        96.0,
        99.0,
        100.0,
        96.0,
        98.0,
        243.0,
        98.0,
        100.0,
        98.0,
        97.0,
        98.0,
        97.0,
        98.0,
        97.0,
        97.0,
        101.0,
        242.0,
        98.0,
        98.0,
        96.0,
        99.0,
        97.0,
        98.0,
        98.0,
        98.0,
        97.0,
        100.0,
        242.0,
        97.0,
        97.0,
        100.0,
        98.0,
        97.0,
        97.0,
        98.0,
        98.0,
        98.0,
        98.0,
        246.0,
        99.0,
        96.0,
        98.0,
        97.0,
        99.0,
        98.0,
        97.0,
        97.0,
        98.0,
        98.0,
        251.0,
        98.0,
        99.0,
        98.0,
        97.0,
        97.0,
        97.0,
        99.0,
        97.0,
        98.0,
        97.0,
        245.0,
        98.0,
        97.0,
        99.0,
        97.0,
        99.0,
        98.0,
        100.0,
        99.0,
        97.0,
        249.0,
        98.0,
        98.0,
        98.0,
        98.0,
        98.0,
        96.0,
        101.0,
        98.0,
        98.0,
        242.0,
        98.0,
        98.0,
        97.0,
        98.0,
        98.0,
        98.0,
        97.0,
        98.0,
        97.0
      ],
      "WindowWidth": [
        588.0,
        564.0,
        246.0,
        252.0,
        248.0,
        252.0,
        250.0,
        247.0,
        253.0,
        244.0,
        250.0,
        564.0,
        252.0,
        247.0,
        246.0,
        251.0,
        250.0,
        246.0,
        252.0,
        254.0,
        246.0,
        249.0,
        564.0,
        248.0,
        254.0,
        249.0,
        248.0,
        250.0,
        246.0,
        250.0,
        247.0,
        248.0,
        255.0,
        562.0,
        249.0,
        250.0,
        246.0,
        252.0,
        248.0,
        250.0,
        251.0,
        249.0,
        248.0,
        254.0,
        561.0,
        247.0,
        248.0,
        254.0,
        250.0,
        248.0,
        248.0,
        250.0,
        250.0,
        249.0,
        250.0,
        570.0,
        252.0,
        245.0,
        250.0,
        248.0,
        252.0,
        250.0,
        247.0,
        248.0,
        249.0,
        250.0,
        576.0,
        250.0,
        252.0,
        250.0,
        248.0,
        248.0,
        248.0,
        252.0,
        248.0,
        251.0,
        248.0,
        566.0,
        250.0,
        248.0,
        252.0,
        248.0,
        252.0,
        249.0,
        254.0,
        251.0,
        248.0,
        572.0,
        249.0,
        249.0,
        250.0,
        250.0,
        250.0,
        246.0,
        255.0,
        250.0,
        250.0,
        562.0,
        250.0,
        249.0,
        248.0,
        250.0,
        250.0,
        251.0,
        248.0,
        250.0,
        247.0
      ]
    },
    "slices": {}
  },
  "CoilCombinationMethod": "Adaptive Combine",
  "NonlinearGradientCorrection": false,
  "MRAcquisitionType": "2D",
  "InstitutionalDepartmentName": "Department",
  "PulseSequenceType": "Spin Echo EPI",
  "B0FieldSource": "pepolar_ses-2"
}
