{
  "AcquisitionMatrixPE": 120,
  "AcquisitionNumber": 1,
  "BandwidthPerPixelPhaseEncode": 13.889,
  "BaseResolution": 120,
  "BodyPartExamined": "BRAIN",
  "ConsistencyInfo": "N4_VE11C_LATEST_20160120",
  "ConversionSoftware": "dcm2niix",
  "ConversionSoftwareVersion": "v1.0.20171215 (OpenJPEG build) GCC6.3.0",
  "DerivedVendorReportedEchoSpacing": 0.000599995,
  "DeviceSerialNumber": "66112",
  "DwellTime": 2e-06,
  "EchoTime": 0.103,
  "EchoTrainLength": 120,
  "EffectiveEchoSpacing": 0.000599995,
  "FlipAngle": 90,
  "ImageOrientationPatientDICOM": [
    0.998759,
    0.0444654,
    0.0224395,
    -0.0450041,
    0.998696,
    0.0240982
  ],
  "ImageType": [
    "ORIGINAL",
    "PRIMARY",
    "DIFFUSION",
    "NONE",
    "ND",
    "NORM",
    "MOSAIC"
  ],
  "InPlanePhaseEncodingDirectionDICOM": "COL",
  "InstitutionAddress": "Maynard_3_Hanover_NH_US_03755",
  "InstitutionName": "Dartmouth_College_-_PBS",
  "InstitutionalDepartmentName": "Department",
  "MRAcquisitionType": "2D",
  "MagneticFieldStrength": 3,
  "Manufacturer": "Siemens",
  "ManufacturersModelName": "Prisma",
  "Modality": "MR",
  "MultibandAccelerationFactor": 4,
  "PartialFourier": 1,
  "PatientPosition": "HFS",
  "PercentPhaseFOV": 100,
  "PhaseEncodingDirection": "j-",
  "PhaseEncodingSteps": 120,
  "PhaseResolution": 1,
  "PixelBandwidth": 2085,
  "ProcedureStepDescription": "Gobbini_Matteo_1038_hyperface",
  "ProtocolName": "dwi_acq-2.0mmXhardi96Xsms4X11b0",
  "PulseSequenceDetails": "%SiemensSeq%_ep2d_diff",
  "ReceiveCoilActiveElements": "HEA;HEP",
  "ReceiveCoilName": "Head_32",
  "ReconMatrixPE": 120,
  "RepetitionTime": 2.6,
  "SAR": 0.279278,
  "ScanOptions": "FS",
  "ScanningSequence": "EP",
  "SequenceName": "_ep_b0",
  "SequenceVariant": "SK_SP",
  "SeriesDescription": "dwi_acq-2.0mmXhardi96Xsms4X11b0",
  "SeriesNumber": 65,
  "ShimSetting": [
    4141,
    -7713,
    -7321,
    625,
    -38,
    -4,
    4,
    62
  ],
  "SliceThickness": 2,
  "SliceTiming": [
    1.935,
    0,
    1.29,
    0.16,
    1.45,
    0.3225,
    1.6125,
    0.4825,
    1.7725,
    0.805,
    2.095,
    0.9675,
    2.2575,
    1.1275,
    2.4175,
    0.645,
    1.935,
    0,
    1.29,
    0.16,
    1.45,
    0.3225,
    1.6125,
    0.4825,
    1.7725,
    0.805,
    2.095,
    0.9675,
    2.2575,
    1.1275,
    2.4175,
    0.645,
    1.935,
    0,
    1.29,
    0.16,
    1.45,
    0.3225,
    1.6125,
    0.4825,
    1.7725,
    0.805,
    2.095,
    0.9675,
    2.2575,
    1.1275,
    2.4175,
    0.645,
    1.935,
    0,
    1.29,
    0.16,
    1.45,
    0.3225,
    1.6125,
    0.4825,
    1.7725,
    0.805,
    2.095,
    0.9675,
    2.2575,
    1.1275,
    2.4175,
    0.645
  ],
  "SoftwareVersions": "syngo_MR_E11",
  "SpacingBetweenSlices": 2,
  "StationName": "AWP66112",
  "TotalReadoutTime": 0.0713994,
  "TxRefAmp": 224.91,
  "time": {
    "samples": {
      "AcquisitionNumber": [
        1,
        2,
        3,
        4,
        5,
        6,
        7,
        8,
        9,
        10,
        11,
        12,
        13,
        14,
        15,
        16,
        17,
        18,
        19,
        20,
        21,
        22,
        23,
        24,
        25,
        26,
        27,
        28,
        29,
        30,
        31,
        32,
        33,
        34,
        35,
        36,
        37,
        38,
        39,
        40,
        41,
        42,
        43,
        44,
        45,
        46,
        47,
        48,
        49,
        50,
        51,
        52,
        53,
        54,
        55,
        56,
        57,
        58,
        59,
        60,
        61,
        62,
        63,
        64,
        65,
        66,
        67,
        68,
        69,
        70,
        71,
        72,
        73,
        74,
        75,
        76,
        77,
        78,
        79,
        80,
        81,
        82,
        83,
        84,
        85,
        86,
        87,
        88,
        89,
        90,
        91,
        92,
        93,
        94,
        95,
        96,
        97,
        98,
        99,
        100,
        101,
        102,
        103,
        104,
        105,
        106,
        107
      ],
      "AcquisitionTime": [
        "180526.542500",
        "180529.142500",
        "180531.742500",
        "180534.342500",
        "180536.942500",
        "180539.542500",
        "180542.142500",
        "180544.742500",
        "180547.342500",
        "180549.942500",
        "180552.542500",
        "180555.142500",
        "180557.742500",
        "180600.342500",
        "180602.942500",
        "180605.542500",
        "180608.142500",
        "180610.742500",
        "180613.342500",
        "180615.942500",
        "180618.542500",
        "180621.142500",
        "180623.742500",
        "180626.342500",
        "180628.942500",
        "180631.542500",
        "180634.142500",
        "180636.742500",
        "180639.342500",
        "180641.942500",
        "180644.542500",
        "180647.142500",
        "180649.742500",
        "180652.342500",
        "180654.942500",
        "180657.542500",
        "180700.142500",
        "180702.742500",
        "180705.342500",
        "180707.942500",
        "180710.542500",
        "180713.142500",
        "180715.742500",
        "180718.342500",
        "180720.942500",
        "180723.542500",
        "180726.142500",
        "180728.742500",
        "180731.342500",
        "180733.942500",
        "180736.542500",
        "180739.142500",
        "180741.742500",
        "180744.342500",
        "180746.942500",
        "180749.542500",
        "180752.142500",
        "180754.742500",
        "180757.342500",
        "180759.942500",
        "180802.542500",
        "180805.142500",
        "180807.742500",
        "180810.342500",
        "180812.942500",
        "180815.542500",
        "180818.142500",
        "180820.742500",
        "180823.342500",
        "180825.942500",
        "180828.542500",
        "180831.142500",
        "180833.742500",
        "180836.342500",
        "180838.942500",
        "180841.542500",
        "180844.142500",
        "180846.742500",
        "180849.342500",
        "180851.942500",
        "180854.542500",
        "180857.142500",
        "180859.742500",
        "180902.342500",
        "180904.942500",
        "180907.542500",
        "180910.142500",
        "180912.742500",
        "180915.342500",
        "180917.942500",
        "180920.542500",
        "180923.142500",
        "180925.742500",
        "180928.342500",
        "180930.942500",
        "180933.542500",
        "180936.142500",
        "180938.742500",
        "180941.342500",
        "180943.942500",
        "180946.542500",
        "180949.142500",
        "180951.742500",
        "180954.342500",
        "180956.942500",
        "180959.542500",
        "181002.142500"
      ],
      "ContentTime": [
        "180636.361000",
        "180636.365000",
        "180636.368000",
        "180636.371000",
        "180636.374000",
        "180636.377000",
        "180636.381000",
        "180636.384000",
        "180636.387000",
        "180636.390000",
        "180636.393000",
        "180636.396000",
        "180636.400000",
        "180636.403000",
        "180636.406000",
        "180636.409000",
        "180636.412000",
        "180636.416000",
        "180636.425000",
        "180636.428000",
        "180636.440000",
        "180636.444000",
        "180636.447000",
        "180636.450000",
        "180636.453000",
        "180636.457000",
        "180636.460000",
        "180736.356000",
        "180736.360000",
        "180736.363000",
        "180736.366000",
        "180736.369000",
        "180736.373000",
        "180736.376000",
        "180736.379000",
        "180736.382000",
        "180736.386000",
        "180736.389000",
        "180736.392000",
        "180736.396000",
        "180736.399000",
        "180736.402000",
        "180736.406000",
        "180736.409000",
        "180736.412000",
        "180736.415000",
        "180736.418000",
        "180736.422000",
        "180736.425000",
        "180736.428000",
        "180816.355000",
        "180816.359000",
        "180816.362000",
        "180816.365000",
        "180816.368000",
        "180816.377000",
        "180816.380000",
        "180816.384000",
        "180816.387000",
        "180816.390000",
        "180816.393000",
        "180816.397000",
        "180816.400000",
        "180816.403000",
        "180816.406000",
        "180916.356000",
        "180916.360000",
        "180916.363000",
        "180916.366000",
        "180916.369000",
        "180916.373000",
        "180916.376000",
        "180916.379000",
        "180916.382000",
        "180916.386000",
        "180916.389000",
        "180916.392000",
        "180916.396000",
        "180916.399000",
        "180916.402000",
        "180916.405000",
        "180916.409000",
        "180916.412000",
        "180916.415000",
        "180916.419000",
        "180916.422000",
        "180916.425000",
        "180916.428000",
        "181003.408000",
        "181003.411000",
        "181003.414000",
        "181003.418000",
        "181003.421000",
        "181003.424000",
        "181003.428000",
        "181003.431000",
        "181003.434000",
        "181003.437000",
        "181003.441000",
        "181003.444000",
        "181003.447000",
        "181003.450000",
        "181003.454000",
        "181003.457000",
        "181003.460000",
        "181003.464000",
        "181003.467000"
      ],
      "InstanceCreationTime": [
        "180636.361000",
        "180636.365000",
        "180636.368000",
        "180636.371000",
        "180636.374000",
        "180636.377000",
        "180636.381000",
        "180636.384000",
        "180636.387000",
        "180636.390000",
        "180636.393000",
        "180636.396000",
        "180636.400000",
        "180636.403000",
        "180636.406000",
        "180636.409000",
        "180636.412000",
        "180636.416000",
        "180636.425000",
        "180636.428000",
        "180636.440000",
        "180636.444000",
        "180636.447000",
        "180636.450000",
        "180636.453000",
        "180636.457000",
        "180636.460000",
        "180736.356000",
        "180736.360000",
        "180736.363000",
        "180736.366000",
        "180736.369000",
        "180736.373000",
        "180736.376000",
        "180736.379000",
        "180736.382000",
        "180736.386000",
        "180736.389000",
        "180736.392000",
        "180736.396000",
        "180736.399000",
        "180736.402000",
        "180736.406000",
        "180736.409000",
        "180736.412000",
        "180736.415000",
        "180736.418000",
        "180736.422000",
        "180736.425000",
        "180736.428000",
        "180816.355000",
        "180816.359000",
        "180816.362000",
        "180816.365000",
        "180816.368000",
        "180816.377000",
        "180816.380000",
        "180816.384000",
        "180816.387000",
        "180816.390000",
        "180816.393000",
        "180816.397000",
        "180816.400000",
        "180816.403000",
        "180816.406000",
        "180916.356000",
        "180916.360000",
        "180916.363000",
        "180916.366000",
        "180916.369000",
        "180916.373000",
        "180916.376000",
        "180916.379000",
        "180916.382000",
        "180916.386000",
        "180916.389000",
        "180916.392000",
        "180916.396000",
        "180916.399000",
        "180916.402000",
        "180916.405000",
        "180916.409000",
        "180916.412000",
        "180916.415000",
        "180916.419000",
        "180916.422000",
        "180916.425000",
        "180916.428000",
        "181003.408000",
        "181003.411000",
        "181003.414000",
        "181003.418000",
        "181003.421000",
        "181003.424000",
        "181003.428000",
        "181003.431000",
        "181003.434000",
        "181003.437000",
        "181003.441000",
        "181003.444000",
        "181003.447000",
        "181003.450000",
        "181003.454000",
        "181003.457000",
        "181003.460000",
        "181003.464000",
        "181003.467000"
      ],
      "InstanceNumber": [
        1,
        2,
        3,
        4,
        5,
        6,
        7,
        8,
        9,
        10,
        11,
        12,
        13,
        14,
        15,
        16,
        17,
        18,
        19,
        20,
        21,
        22,
        23,
        24,
        25,
        26,
        27,
        28,
        29,
        30,
        31,
        32,
        33,
        34,
        35,
        36,
        37,
        38,
        39,
        40,
        41,
        42,
        43,
        44,
        45,
        46,
        47,
        48,
        49,
        50,
        51,
        52,
        53,
        54,
        55,
        56,
        57,
        58,
        59,
        60,
        61,
        62,
        63,
        64,
        65,
        66,
        67,
        68,
        69,
        70,
        71,
        72,
        73,
        74,
        75,
        76,
        77,
        78,
        79,
        80,
        81,
        82,
        83,
        84,
        85,
        86,
        87,
        88,
        89,
        90,
        91,
        92,
        93,
        94,
        95,
        96,
        97,
        98,
        99,
        100,
        101,
        102,
        103,
        104,
        105,
        106,
        107
      ],
      "LargestImagePixelValue": [
        2498,
        2747,
        356,
        422,
        403,
        356,
        421,
        403,
        472,
        341,
        406,
        2456,
        409,
        431,
        390,
        541,
        422,
        323,
        478,
        480,
        370,
        410,
        2406,
        412,
        493,
        420,
        381,
        492,
        358,
        413,
        430,
        373,
        498,
        2349,
        408,
        396,
        344,
        355,
        363,
        442,
        375,
        417,
        372,
        467,
        2538,
        330,
        338,
        450,
        438,
        454,
        400,
        484,
        333,
        381,
        360,
        2494,
        358,
        351,
        351,
        366,
        393,
        369,
        406,
        371,
        366,
        376,
        2654,
        376,
        412,
        436,
        464,
        414,
        332,
        422,
        320,
        380,
        481,
        2447,
        502,
        415,
        409,
        351,
        433,
        365,
        469,
        533,
        444,
        2504,
        386,
        430,
        468,
        492,
        361,
        378,
        483,
        364,
        435,
        2383,
        452,
        396,
        334,
        405,
        330,
        449,
        450,
        374,
        344
      ],
      "SequenceName": [
        "*ep_b0",
        "*ep_b0",
        "*ep_b1000#2",
        "*ep_b1000#3",
        "*ep_b1000#4",
        "*ep_b1000#5",
        "*ep_b1000#6",
        "*ep_b1000#7",
        "*ep_b1000#8",
        "*ep_b1000#9",
        "*ep_b1000#10",
        "*ep_b0",
        "*ep_b1000#12",
        "*ep_b1000#13",
        "*ep_b1000#14",
        "*ep_b1000#15",
        "*ep_b1000#16",
        "*ep_b1000#17",
        "*ep_b1000#18",
        "*ep_b1000#19",
        "*ep_b1000#20",
        "*ep_b1000#21",
        "*ep_b0",
        "*ep_b1000#23",
        "*ep_b1000#24",
        "*ep_b1000#25",
        "*ep_b1000#26",
        "*ep_b1000#27",
        "*ep_b1000#28",
        "*ep_b1000#29",
        "*ep_b1000#30",
        "*ep_b1000#31",
        "*ep_b1000#32",
        "*ep_b0",
        "*ep_b1000#34",
        "*ep_b1000#35",
        "*ep_b1000#36",
        "*ep_b1000#37",
        "*ep_b1000#38",
        "*ep_b1000#39",
        "*ep_b1000#40",
        "*ep_b1000#41",
        "*ep_b1000#42",
        "*ep_b1000#43",
        "*ep_b0",
        "*ep_b1000#45",
        "*ep_b1000#46",
        "*ep_b1000#47",
        "*ep_b1000#48",
        "*ep_b1000#49",
        "*ep_b1000#50",
        "*ep_b1000#51",
        "*ep_b1000#52",
        "*ep_b1000#53",
        "*ep_b1000#54",
        "*ep_b0",
        "*ep_b1000#56",
        "*ep_b1000#57",
        "*ep_b1000#58",
        "*ep_b1000#59",
        "*ep_b1000#60",
        "*ep_b1000#61",
        "*ep_b1000#62",
        "*ep_b1000#63",
        "*ep_b1000#64",
        "*ep_b1000#65",
        "*ep_b0",
        "*ep_b1000#67",
        "*ep_b1000#68",
        "*ep_b1000#69",
        "*ep_b1000#70",
        "*ep_b1000#71",
        "*ep_b1000#72",
        "*ep_b1000#73",
        "*ep_b1000#74",
        "*ep_b1000#75",
        "*ep_b1000#76",
        "*ep_b0",
        "*ep_b1000#78",
        "*ep_b1000#79",
        "*ep_b1000#80",
        "*ep_b1000#81",
        "*ep_b1000#82",
        "*ep_b1000#83",
        "*ep_b1000#84",
        "*ep_b1000#85",
        "*ep_b1000#86",
        "*ep_b0",
        "*ep_b1000#88",
        "*ep_b1000#89",
        "*ep_b1000#90",
        "*ep_b1000#91",
        "*ep_b1000#92",
        "*ep_b1000#93",
        "*ep_b1000#94",
        "*ep_b1000#95",
        "*ep_b1000#96",
        "*ep_b0",
        "*ep_b1000#98",
        "*ep_b1000#99",
        "*ep_b1000#100",
        "*ep_b1000#101",
        "*ep_b1000#102",
        "*ep_b1000#103",
        "*ep_b1000#104",
        "*ep_b1000#105",
        "*ep_b1000#106"
      ],
      "WindowCenter": [
        260,
        273,
        94,
        98,
        95,
        96,
        96,
        95,
        98,
        92,
        97,
        256,
        97,
        95,
        94,
        97,
        97,
        93,
        97,
        98,
        94,
        96,
        252,
        96,
        98,
        95,
        95,
        98,
        94,
        97,
        95,
        95,
        98,
        248,
        96,
        96,
        93,
        96,
        94,
        97,
        95,
        96,
        95,
        97,
        259,
        94,
        95,
        98,
        96,
        96,
        95,
        96,
        95,
        96,
        95,
        258,
        97,
        93,
        95,
        94,
        98,
        95,
        96,
        95,
        95,
        95,
        267,
        95,
        98,
        96,
        95,
        95,
        94,
        97,
        94,
        96,
        95,
        255,
        97,
        96,
        97,
        94,
        97,
        94,
        97,
        98,
        95,
        258,
        95,
        97,
        98,
        97,
        96,
        94,
        99,
        95,
        96,
        250,
        96,
        95,
        94,
        96,
        96,
        97,
        96,
        96,
        94
      ],
      "WindowWidth": [
        593,
        607,
        241,
        249,
        243,
        245,
        245,
        244,
        249,
        237,
        247,
        584,
        247,
        244,
        241,
        247,
        247,
        240,
        246,
        249,
        241,
        245,
        578,
        245,
        250,
        243,
        244,
        248,
        241,
        247,
        243,
        243,
        250,
        571,
        246,
        245,
        239,
        246,
        241,
        248,
        244,
        245,
        243,
        247,
        587,
        242,
        243,
        248,
        245,
        245,
        243,
        245,
        244,
        245,
        244,
        586,
        247,
        239,
        244,
        241,
        249,
        244,
        245,
        243,
        244,
        243,
        598,
        243,
        249,
        245,
        243,
        243,
        242,
        247,
        242,
        246,
        243,
        581,
        247,
        245,
        247,
        241,
        247,
        242,
        246,
        248,
        243,
        588,
        244,
        247,
        249,
        246,
        245,
        241,
        250,
        244,
        245,
        573,
        245,
        243,
        242,
        245,
        245,
        247,
        245,
        245,
        241
      ]
    },
    "slices": {}
  }
}
