{
  "AcquisitionMatrixPE": 120,
  "AcquisitionNumber": 1,
  "BandwidthPerPixelPhaseEncode": 13.889,
  "BaseResolution": 120,
  "BodyPartExamined": "BRAIN",
  "ConsistencyInfo": "N4_VE11C_LATEST_20160120",
  "ConversionSoftware": "dcm2niix",
  "ConversionSoftwareVersion": "v1.0.20171215 (OpenJPEG build) GCC6.3.0",
  "DerivedVendorReportedEchoSpacing": 0.000599995,
  "DeviceSerialNumber": "66112",
  "DwellTime": 2e-06,
  "EchoTime": 0.103,
  "EchoTrainLength": 120,
  "EffectiveEchoSpacing": 0.000599995,
  "FlipAngle": 90,
  "ImageOrientationPatientDICOM": [
    0.998137,
    0.059023,
    0.0154548,
    -0.0593003,
    0.998075,
    0.0181458
  ],
  "ImageType": [
    "ORIGINAL",
    "PRIMARY",
    "DIFFUSION",
    "NONE",
    "ND",
    "NORM",
    "MOSAIC"
  ],
  "InPlanePhaseEncodingDirectionDICOM": "COL",
  "InstitutionAddress": "Maynard_3_Hanover_NH_US_03755",
  "InstitutionName": "Dartmouth_College_-_PBS",
  "InstitutionalDepartmentName": "Department",
  "MRAcquisitionType": "2D",
  "MagneticFieldStrength": 3,
  "Manufacturer": "Siemens",
  "ManufacturersModelName": "Prisma",
  "Modality": "MR",
  "MultibandAccelerationFactor": 4,
  "PartialFourier": 1,
  "PatientPosition": "HFS",
  "PercentPhaseFOV": 100,
  "PhaseEncodingDirection": "j-",
  "PhaseEncodingSteps": 120,
  "PhaseResolution": 1,
  "PixelBandwidth": 2085,
  "ProcedureStepDescription": "Gobbini_Matteo_1038_hyperface",
  "ProtocolName": "dwi_acq-2.0mmXhardi96Xsms4X11b0",
  "PulseSequenceDetails": "%SiemensSeq%_ep2d_diff",
  "ReceiveCoilActiveElements": "HEA;HEP",
  "ReceiveCoilName": "Head_32",
  "ReconMatrixPE": 120,
  "RepetitionTime": 2.6,
  "SAR": 0.375173,
  "ScanOptions": "FS",
  "ScanningSequence": "EP",
  "SequenceName": "_ep_b0",
  "SequenceVariant": "SK_SP",
  "SeriesDescription": "dwi_acq-2.0mmXhardi96Xsms4X11b0",
  "SeriesNumber": 72,
  "ShimSetting": [
    4141,
    -7710,
    -7314,
    657,
    23,
    77,
    92,
    30
  ],
  "SliceThickness": 2,
  "SliceTiming": [
    1.935,
    0,
    1.29,
    0.16,
    1.45,
    0.3225,
    1.6125,
    0.4825,
    1.7725,
    0.805,
    2.095,
    0.9675,
    2.2575,
    1.1275,
    2.4175,
    0.645,
    1.935,
    0,
    1.29,
    0.16,
    1.45,
    0.3225,
    1.6125,
    0.4825,
    1.7725,
    0.805,
    2.095,
    0.9675,
    2.2575,
    1.1275,
    2.4175,
    0.645,
    1.935,
    0,
    1.29,
    0.16,
    1.45,
    0.3225,
    1.6125,
    0.4825,
    1.7725,
    0.805,
    2.095,
    0.9675,
    2.2575,
    1.1275,
    2.4175,
    0.645,
    1.935,
    0,
    1.29,
    0.16,
    1.45,
    0.3225,
    1.6125,
    0.4825,
    1.7725,
    0.805,
    2.095,
    0.9675,
    2.2575,
    1.1275,
    2.4175,
    0.645
  ],
  "SoftwareVersions": "syngo_MR_E11",
  "SpacingBetweenSlices": 2,
  "StationName": "AWP66112",
  "TotalReadoutTime": 0.0713994,
  "TxRefAmp": 256.689,
  "time": {
    "samples": {
      "AcquisitionNumber": [
        1,
        2,
        3,
        4,
        5,
        6,
        7,
        8,
        9,
        10,
        11,
        12,
        13,
        14,
        15,
        16,
        17,
        18,
        19,
        20,
        21,
        22,
        23,
        24,
        25,
        26,
        27,
        28,
        29,
        30,
        31,
        32,
        33,
        34,
        35,
        36,
        37,
        38,
        39,
        40,
        41,
        42,
        43,
        44,
        45,
        46,
        47,
        48,
        49,
        50,
        51,
        52,
        53,
        54,
        55,
        56,
        57,
        58,
        59,
        60,
        61,
        62,
        63,
        64,
        65,
        66,
        67,
        68,
        69,
        70,
        71,
        72,
        73,
        74,
        75,
        76,
        77,
        78,
        79,
        80,
        81,
        82,
        83,
        84,
        85,
        86,
        87,
        88,
        89,
        90,
        91,
        92,
        93,
        94,
        95,
        96,
        97,
        98,
        99,
        100,
        101,
        102,
        103,
        104,
        105,
        106,
        107
      ],
      "AcquisitionTime": [
        "122742.530000",
        "122745.130000",
        "122747.730000",
        "122750.330000",
        "122752.930000",
        "122755.530000",
        "122758.130000",
        "122800.730000",
        "122803.330000",
        "122805.930000",
        "122808.530000",
        "122811.130000",
        "122813.730000",
        "122816.330000",
        "122818.930000",
        "122821.530000",
        "122824.130000",
        "122826.730000",
        "122829.330000",
        "122831.930000",
        "122834.530000",
        "122837.130000",
        "122839.730000",
        "122842.330000",
        "122844.930000",
        "122847.530000",
        "122850.130000",
        "122852.730000",
        "122855.330000",
        "122857.930000",
        "122900.530000",
        "122903.130000",
        "122905.730000",
        "122908.330000",
        "122910.930000",
        "122913.530000",
        "122916.130000",
        "122918.730000",
        "122921.330000",
        "122923.930000",
        "122926.530000",
        "122929.130000",
        "122931.730000",
        "122934.330000",
        "122936.930000",
        "122939.530000",
        "122942.130000",
        "122944.730000",
        "122947.330000",
        "122949.930000",
        "122952.530000",
        "122955.130000",
        "122957.730000",
        "123000.330000",
        "123002.930000",
        "123005.530000",
        "123008.130000",
        "123010.730000",
        "123013.330000",
        "123015.930000",
        "123018.530000",
        "123021.130000",
        "123023.730000",
        "123026.330000",
        "123028.930000",
        "123031.530000",
        "123034.130000",
        "123036.730000",
        "123039.330000",
        "123041.930000",
        "123044.530000",
        "123047.130000",
        "123049.730000",
        "123052.330000",
        "123054.930000",
        "123057.530000",
        "123100.130000",
        "123102.730000",
        "123105.330000",
        "123107.930000",
        "123110.530000",
        "123113.130000",
        "123115.730000",
        "123118.330000",
        "123120.930000",
        "123123.530000",
        "123126.130000",
        "123128.730000",
        "123131.330000",
        "123133.930000",
        "123136.530000",
        "123139.130000",
        "123141.730000",
        "123144.330000",
        "123146.930000",
        "123149.530000",
        "123152.130000",
        "123154.730000",
        "123157.330000",
        "123159.930000",
        "123202.530000",
        "123205.130000",
        "123207.730000",
        "123210.330000",
        "123212.930000",
        "123215.530000",
        "123218.130000"
      ],
      "ContentTime": [
        "122836.431000",
        "122836.435000",
        "122836.438000",
        "122836.441000",
        "122836.444000",
        "122836.448000",
        "122836.451000",
        "122836.454000",
        "122836.458000",
        "122836.461000",
        "122836.464000",
        "122836.467000",
        "122836.470000",
        "122836.474000",
        "122836.484000",
        "122836.487000",
        "122836.490000",
        "122836.494000",
        "122836.497000",
        "122836.501000",
        "122936.426000",
        "122936.430000",
        "122936.433000",
        "122936.436000",
        "122936.439000",
        "122936.443000",
        "122936.446000",
        "122936.449000",
        "122936.452000",
        "122936.456000",
        "122936.459000",
        "122936.467000",
        "122936.471000",
        "122936.474000",
        "122936.477000",
        "122936.480000",
        "122936.484000",
        "122936.487000",
        "122936.490000",
        "122936.493000",
        "122936.497000",
        "122936.500000",
        "122936.503000",
        "122936.511000",
        "123036.426000",
        "123036.430000",
        "123036.433000",
        "123036.436000",
        "123036.439000",
        "123036.443000",
        "123036.446000",
        "123036.449000",
        "123036.452000",
        "123036.456000",
        "123036.459000",
        "123036.462000",
        "123036.465000",
        "123036.468000",
        "123036.472000",
        "123036.475000",
        "123036.478000",
        "123036.481000",
        "123036.485000",
        "123036.488000",
        "123036.491000",
        "123036.494000",
        "123036.498000",
        "123136.426000",
        "123136.430000",
        "123136.433000",
        "123136.436000",
        "123136.440000",
        "123136.443000",
        "123136.446000",
        "123136.449000",
        "123136.453000",
        "123136.456000",
        "123136.459000",
        "123136.462000",
        "123136.466000",
        "123136.469000",
        "123136.472000",
        "123136.475000",
        "123136.479000",
        "123136.482000",
        "123136.485000",
        "123136.488000",
        "123136.491000",
        "123136.495000",
        "123136.498000",
        "123220.071000",
        "123220.075000",
        "123220.078000",
        "123220.081000",
        "123220.085000",
        "123220.088000",
        "123220.091000",
        "123220.094000",
        "123220.098000",
        "123220.101000",
        "123220.104000",
        "123220.107000",
        "123220.111000",
        "123220.114000",
        "123220.117000",
        "123220.121000",
        "123220.124000"
      ],
      "InstanceCreationTime": [
        "122836.431000",
        "122836.435000",
        "122836.438000",
        "122836.441000",
        "122836.444000",
        "122836.448000",
        "122836.451000",
        "122836.454000",
        "122836.458000",
        "122836.461000",
        "122836.464000",
        "122836.467000",
        "122836.470000",
        "122836.474000",
        "122836.484000",
        "122836.487000",
        "122836.490000",
        "122836.494000",
        "122836.497000",
        "122836.501000",
        "122936.426000",
        "122936.430000",
        "122936.433000",
        "122936.436000",
        "122936.439000",
        "122936.443000",
        "122936.446000",
        "122936.449000",
        "122936.452000",
        "122936.456000",
        "122936.459000",
        "122936.467000",
        "122936.471000",
        "122936.474000",
        "122936.477000",
        "122936.480000",
        "122936.484000",
        "122936.487000",
        "122936.490000",
        "122936.493000",
        "122936.497000",
        "122936.500000",
        "122936.503000",
        "122936.511000",
        "123036.426000",
        "123036.430000",
        "123036.433000",
        "123036.436000",
        "123036.439000",
        "123036.443000",
        "123036.446000",
        "123036.449000",
        "123036.452000",
        "123036.456000",
        "123036.459000",
        "123036.462000",
        "123036.465000",
        "123036.468000",
        "123036.472000",
        "123036.475000",
        "123036.478000",
        "123036.481000",
        "123036.485000",
        "123036.488000",
        "123036.491000",
        "123036.494000",
        "123036.498000",
        "123136.426000",
        "123136.430000",
        "123136.433000",
        "123136.436000",
        "123136.440000",
        "123136.443000",
        "123136.446000",
        "123136.449000",
        "123136.453000",
        "123136.456000",
        "123136.459000",
        "123136.462000",
        "123136.466000",
        "123136.469000",
        "123136.472000",
        "123136.475000",
        "123136.479000",
        "123136.482000",
        "123136.485000",
        "123136.488000",
        "123136.491000",
        "123136.495000",
        "123136.498000",
        "123220.071000",
        "123220.075000",
        "123220.078000",
        "123220.081000",
        "123220.085000",
        "123220.088000",
        "123220.091000",
        "123220.094000",
        "123220.098000",
        "123220.101000",
        "123220.104000",
        "123220.107000",
        "123220.111000",
        "123220.114000",
        "123220.117000",
        "123220.121000",
        "123220.124000"
      ],
      "InstanceNumber": [
        1,
        2,
        3,
        4,
        5,
        6,
        7,
        8,
        9,
        10,
        11,
        12,
        13,
        14,
        15,
        16,
        17,
        18,
        19,
        20,
        21,
        22,
        23,
        24,
        25,
        26,
        27,
        28,
        29,
        30,
        31,
        32,
        33,
        34,
        35,
        36,
        37,
        38,
        39,
        40,
        41,
        42,
        43,
        44,
        45,
        46,
        47,
        48,
        49,
        50,
        51,
        52,
        53,
        54,
        55,
        56,
        57,
        58,
        59,
        60,
        61,
        62,
        63,
        64,
        65,
        66,
        67,
        68,
        69,
        70,
        71,
        72,
        73,
        74,
        75,
        76,
        77,
        78,
        79,
        80,
        81,
        82,
        83,
        84,
        85,
        86,
        87,
        88,
        89,
        90,
        91,
        92,
        93,
        94,
        95,
        96,
        97,
        98,
        99,
        100,
        101,
        102,
        103,
        104,
        105,
        106,
        107
      ],
      "LargestImagePixelValue": [
        1744,
        1878,
        403,
        425,
        440,
        442,
        340,
        439,
        396,
        394,
        410,
        1566,
        403,
        426,
        404,
        424,
        395,
        420,
        465,
        431,
        375,
        351,
        1496,
        419,
        396,
        411,
        439,
        403,
        433,
        431,
        377,
        403,
        416,
        1722,
        413,
        410,
        420,
        395,
        411,
        418,
        411,
        426,
        393,
        424,
        1566,
        433,
        406,
        425,
        444,
        381,
        408,
        423,
        394,
        418,
        408,
        1569,
        426,
        408,
        429,
        373,
        418,
        388,
        415,
        384,
        395,
        407,
        1638,
        416,
        378,
        413,
        395,
        409,
        437,
        402,
        416,
        406,
        409,
        1530,
        423,
        426,
        380,
        408,
        451,
        466,
        389,
        363,
        414,
        1945,
        416,
        451,
        398,
        429,
        439,
        406,
        408,
        415,
        442,
        1572,
        403,
        380,
        406,
        426,
        397,
        418,
        400,
        382,
        420
      ],
      "SequenceName": [
        "*ep_b0",
        "*ep_b0",
        "*ep_b1000#2",
        "*ep_b1000#3",
        "*ep_b1000#4",
        "*ep_b1000#5",
        "*ep_b1000#6",
        "*ep_b1000#7",
        "*ep_b1000#8",
        "*ep_b1000#9",
        "*ep_b1000#10",
        "*ep_b0",
        "*ep_b1000#12",
        "*ep_b1000#13",
        "*ep_b1000#14",
        "*ep_b1000#15",
        "*ep_b1000#16",
        "*ep_b1000#17",
        "*ep_b1000#18",
        "*ep_b1000#19",
        "*ep_b1000#20",
        "*ep_b1000#21",
        "*ep_b0",
        "*ep_b1000#23",
        "*ep_b1000#24",
        "*ep_b1000#25",
        "*ep_b1000#26",
        "*ep_b1000#27",
        "*ep_b1000#28",
        "*ep_b1000#29",
        "*ep_b1000#30",
        "*ep_b1000#31",
        "*ep_b1000#32",
        "*ep_b0",
        "*ep_b1000#34",
        "*ep_b1000#35",
        "*ep_b1000#36",
        "*ep_b1000#37",
        "*ep_b1000#38",
        "*ep_b1000#39",
        "*ep_b1000#40",
        "*ep_b1000#41",
        "*ep_b1000#42",
        "*ep_b1000#43",
        "*ep_b0",
        "*ep_b1000#45",
        "*ep_b1000#46",
        "*ep_b1000#47",
        "*ep_b1000#48",
        "*ep_b1000#49",
        "*ep_b1000#50",
        "*ep_b1000#51",
        "*ep_b1000#52",
        "*ep_b1000#53",
        "*ep_b1000#54",
        "*ep_b0",
        "*ep_b1000#56",
        "*ep_b1000#57",
        "*ep_b1000#58",
        "*ep_b1000#59",
        "*ep_b1000#60",
        "*ep_b1000#61",
        "*ep_b1000#62",
        "*ep_b1000#63",
        "*ep_b1000#64",
        "*ep_b1000#65",
        "*ep_b0",
        "*ep_b1000#67",
        "*ep_b1000#68",
        "*ep_b1000#69",
        "*ep_b1000#70",
        "*ep_b1000#71",
        "*ep_b1000#72",
        "*ep_b1000#73",
        "*ep_b1000#74",
        "*ep_b1000#75",
        "*ep_b1000#76",
        "*ep_b0",
        "*ep_b1000#78",
        "*ep_b1000#79",
        "*ep_b1000#80",
        "*ep_b1000#81",
        "*ep_b1000#82",
        "*ep_b1000#83",
        "*ep_b1000#84",
        "*ep_b1000#85",
        "*ep_b1000#86",
        "*ep_b0",
        "*ep_b1000#88",
        "*ep_b1000#89",
        "*ep_b1000#90",
        "*ep_b1000#91",
        "*ep_b1000#92",
        "*ep_b1000#93",
        "*ep_b1000#94",
        "*ep_b1000#95",
        "*ep_b1000#96",
        "*ep_b0",
        "*ep_b1000#98",
        "*ep_b1000#99",
        "*ep_b1000#100",
        "*ep_b1000#101",
        "*ep_b1000#102",
        "*ep_b1000#103",
        "*ep_b1000#104",
        "*ep_b1000#105",
        "*ep_b1000#106"
      ],
      "WindowCenter": [
        226,
        227,
        91,
        95,
        93,
        94,
        93,
        93,
        95,
        91,
        94,
        221,
        94,
        93,
        92,
        94,
        94,
        92,
        94,
        95,
        92,
        94,
        220,
        94,
        95,
        93,
        94,
        94,
        93,
        94,
        92,
        93,
        96,
        221,
        94,
        94,
        92,
        95,
        92,
        94,
        94,
        94,
        92,
        94,
        220,
        93,
        93,
        95,
        94,
        93,
        93,
        94,
        93,
        94,
        94,
        222,
        94,
        92,
        94,
        92,
        95,
        94,
        94,
        93,
        93,
        93,
        224,
        93,
        94,
        94,
        93,
        93,
        93,
        94,
        93,
        94,
        93,
        222,
        95,
        93,
        94,
        93,
        94,
        94,
        94,
        93,
        93,
        227,
        94,
        95,
        94,
        94,
        94,
        92,
        95,
        94,
        94,
        219,
        93,
        93,
        93,
        94,
        93,
        95,
        93,
        93,
        93
      ],
      "WindowWidth": [
        546,
        543,
        235,
        244,
        238,
        242,
        238,
        239,
        242,
        233,
        240,
        534,
        242,
        238,
        236,
        240,
        242,
        237,
        241,
        243,
        235,
        240,
        531,
        240,
        244,
        238,
        240,
        242,
        238,
        242,
        236,
        239,
        246,
        533,
        240,
        240,
        235,
        242,
        237,
        242,
        241,
        240,
        236,
        242,
        532,
        238,
        238,
        244,
        240,
        238,
        238,
        240,
        238,
        242,
        240,
        537,
        242,
        235,
        241,
        236,
        242,
        240,
        240,
        238,
        239,
        238,
        541,
        239,
        242,
        240,
        238,
        238,
        237,
        242,
        239,
        242,
        237,
        536,
        243,
        239,
        240,
        237,
        242,
        240,
        242,
        240,
        238,
        543,
        240,
        242,
        242,
        240,
        240,
        236,
        244,
        240,
        241,
        529,
        238,
        238,
        238,
        240,
        239,
        242,
        238,
        239,
        237
      ]
    },
    "slices": {}
  }
}
