{
  "AcquisitionMatrixPE": 96,
  "AcquisitionNumber": 1,
  "BandwidthPerPixelPhaseEncode": 18.939,
  "BaseResolution": 96,
  "BodyPartExamined": "BRAIN",
  "ConsistencyInfo": "N4_VE11C_LATEST_20160120",
  "ConversionSoftware": "dcm2niix",
  "ConversionSoftwareVersion": "v1.0.20170923 (OpenJPEG build) GCC6.3.0",
  "DerivedVendorReportedEchoSpacing": 0.000550011,
  "DeviceSerialNumber": "66112",
  "DwellTime": 2.2e-06,
  "EchoTime": 0.033,
  "EchoTrainLength": 96,
  "EffectiveEchoSpacing": 0.000550011,
  "FlipAngle": 59,
  "ImageType": [
    "ORIGINAL",
    "PRIMARY",
    "FMRI",
    "NONE",
    "ND",
    "NORM",
    "MOSAIC"
  ],
  "InstitutionAddress": "Maynard_3_Hanover_NH_US_03755",
  "InstitutionName": "Dartmouth_College_-_PBS",
  "MagneticFieldStrength": 3,
  "Manufacturer": "Siemens",
  "ManufacturersModelName": "Prisma",
  "Modality": "MR",
  "MultibandAccelerationFactor": 4,
  "PartialFourier": 1,
  "PercentPhaseFOV": 100,
  "PhaseEncodingDirection": "j-",
  "PhaseEncodingSteps": 96,
  "PhaseResolution": 1,
  "ProcedureStepDescription": "Gobbini_Matteo_1038_hyperface",
  "ProtocolName": "func_run-03_task-visualmemory",
  "PulseSequenceDetails": "%SiemensSeq%_ep2d_bold",
  "ReceiveCoilActiveElements": "HEA;HEP",
  "ReceiveCoilName": "Head_32",
  "ReconMatrixPE": 96,
  "RepetitionTime": 1,
  "ScanOptions": "FS",
  "ScanningSequence": "EP",
  "SequenceName": "_epfid2d1_96",
  "SequenceVariant": "SK",
  "SeriesDescription": "func_run-03_task-visualmemory",
  "SliceTiming": [
    0.735,
    0,
    0.49,
    0.08,
    0.57,
    0.1625,
    0.6525,
    0.325,
    0.815,
    0.4075,
    0.8975,
    0.245,
    0.735,
    0,
    0.49,
    0.08,
    0.57,
    0.1625,
    0.6525,
    0.325,
    0.815,
    0.4075,
    0.8975,
    0.245,
    0.735,
    0,
    0.49,
    0.08,
    0.57,
    0.1625,
    0.6525,
    0.325,
    0.815,
    0.4075,
    0.8975,
    0.245,
    0.735,
    0,
    0.49,
    0.08,
    0.57,
    0.1625,
    0.6525,
    0.325,
    0.815,
    0.4075,
    0.8975,
    0.245
  ],
  "SoftwareVersions": "syngo_MR_E11",
  "StationName": "AWP66112",
  "TotalReadoutTime": 0.0522511,
  "time": {
    "samples": {
      "AcquisitionNumber": [
        1,
        2,
        3,
        4,
        5,
        6,
        7,
        8,
        9,
        10,
        11,
        12,
        13,
        14,
        15,
        16,
        17,
        18,
        19,
        20,
        21,
        22,
        23,
        24,
        25,
        26,
        27,
        28,
        29,
        30,
        31,
        32,
        33,
        34,
        35,
        36,
        37,
        38,
        39,
        40,
        41,
        42,
        43,
        44,
        45,
        46,
        47,
        48,
        49,
        50,
        51,
        52,
        53,
        54,
        55,
        56,
        57,
        58,
        59,
        60,
        61,
        62,
        63,
        64,
        65,
        66,
        67,
        68,
        69,
        70,
        71,
        72,
        73,
        74,
        75,
        76,
        77,
        78,
        79,
        80,
        81,
        82,
        83,
        84,
        85,
        86,
        87,
        88,
        89,
        90,
        91,
        92,
        93,
        94,
        95,
        96,
        97,
        98,
        99,
        100,
        101,
        102,
        103,
        104,
        105,
        106,
        107,
        108,
        109,
        110,
        111,
        112,
        113,
        114,
        115,
        116,
        117,
        118,
        119,
        120,
        121,
        122,
        123,
        124,
        125,
        126,
        127,
        128,
        129,
        130,
        131,
        132,
        133,
        134,
        135,
        136,
        137,
        138,
        139,
        140,
        141,
        142,
        143,
        144,
        145,
        146,
        147,
        148,
        149,
        150,
        151,
        152,
        153,
        154,
        155,
        156,
        157,
        158,
        159,
        160,
        161,
        162,
        163,
        164,
        165,
        166,
        167,
        168,
        169,
        170,
        171,
        172,
        173,
        174,
        175,
        176,
        177,
        178,
        179,
        180,
        181,
        182,
        183,
        184,
        185,
        186,
        187,
        188,
        189,
        190,
        191,
        192,
        193,
        194,
        195,
        196,
        197,
        198,
        199,
        200,
        201,
        202,
        203,
        204,
        205,
        206,
        207,
        208,
        209,
        210,
        211,
        212,
        213,
        214,
        215,
        216,
        217,
        218,
        219,
        220,
        221,
        222,
        223,
        224,
        225,
        226,
        227,
        228,
        229,
        230,
        231,
        232,
        233,
        234,
        235,
        236,
        237,
        238,
        239,
        240,
        241,
        242,
        243,
        244,
        245,
        246,
        247,
        248,
        249,
        250,
        251,
        252,
        253,
        254,
        255,
        256,
        257,
        258,
        259,
        260,
        261,
        262,
        263,
        264,
        265,
        266,
        267,
        268,
        269,
        270,
        271,
        272,
        273,
        274,
        275,
        276,
        277,
        278,
        279,
        280,
        281,
        282,
        283,
        284,
        285,
        286,
        287,
        288
      ],
      "AcquisitionTime": [
        "115440.647500",
        "115441.647500",
        "115442.647500",
        "115443.647500",
        "115444.647500",
        "115445.647500",
        "115446.647500",
        "115447.647500",
        "115448.647500",
        "115449.647500",
        "115450.647500",
        "115451.647500",
        "115452.647500",
        "115453.647500",
        "115454.647500",
        "115455.647500",
        "115456.647500",
        "115457.647500",
        "115458.647500",
        "115459.647500",
        "115500.647500",
        "115501.647500",
        "115502.647500",
        "115503.647500",
        "115504.647500",
        "115505.647500",
        "115506.647500",
        "115507.647500",
        "115508.647500",
        "115509.647500",
        "115510.647500",
        "115511.647500",
        "115512.647500",
        "115513.647500",
        "115514.647500",
        "115515.647500",
        "115516.647500",
        "115517.647500",
        "115518.647500",
        "115519.647500",
        "115520.647500",
        "115521.647500",
        "115522.647500",
        "115523.647500",
        "115524.647500",
        "115525.647500",
        "115526.647500",
        "115527.647500",
        "115528.647500",
        "115529.647500",
        "115530.647500",
        "115531.647500",
        "115532.647500",
        "115533.647500",
        "115534.647500",
        "115535.647500",
        "115536.647500",
        "115537.647500",
        "115538.647500",
        "115539.647500",
        "115540.647500",
        "115541.647500",
        "115542.647500",
        "115543.647500",
        "115544.647500",
        "115545.647500",
        "115546.647500",
        "115547.647500",
        "115548.647500",
        "115549.647500",
        "115550.647500",
        "115551.647500",
        "115552.647500",
        "115553.647500",
        "115554.647500",
        "115555.647500",
        "115556.647500",
        "115557.647500",
        "115558.647500",
        "115559.647500",
        "115600.647500",
        "115601.647500",
        "115602.647500",
        "115603.647500",
        "115604.647500",
        "115605.647500",
        "115606.647500",
        "115607.647500",
        "115608.647500",
        "115609.647500",
        "115610.647500",
        "115611.647500",
        "115612.647500",
        "115613.647500",
        "115614.647500",
        "115615.647500",
        "115616.647500",
        "115617.647500",
        "115618.647500",
        "115619.647500",
        "115620.647500",
        "115621.647500",
        "115622.647500",
        "115623.647500",
        "115624.647500",
        "115625.647500",
        "115626.647500",
        "115627.647500",
        "115628.647500",
        "115629.647500",
        "115630.647500",
        "115631.647500",
        "115632.647500",
        "115633.647500",
        "115634.647500",
        "115635.647500",
        "115636.647500",
        "115637.647500",
        "115638.647500",
        "115639.647500",
        "115640.647500",
        "115641.647500",
        "115642.647500",
        "115643.647500",
        "115644.647500",
        "115645.647500",
        "115646.647500",
        "115647.647500",
        "115648.647500",
        "115649.647500",
        "115650.647500",
        "115651.647500",
        "115652.647500",
        "115653.647500",
        "115654.647500",
        "115655.647500",
        "115656.647500",
        "115657.647500",
        "115658.647500",
        "115659.647500",
        "115700.647500",
        "115701.647500",
        "115702.647500",
        "115703.647500",
        "115704.647500",
        "115705.647500",
        "115706.647500",
        "115707.647500",
        "115708.647500",
        "115709.647500",
        "115710.647500",
        "115711.647500",
        "115712.647500",
        "115713.647500",
        "115714.647500",
        "115715.647500",
        "115716.647500",
        "115717.647500",
        "115718.647500",
        "115719.647500",
        "115720.647500",
        "115721.647500",
        "115722.647500",
        "115723.647500",
        "115724.647500",
        "115725.647500",
        "115726.647500",
        "115727.647500",
        "115728.647500",
        "115729.647500",
        "115730.647500",
        "115731.647500",
        "115732.647500",
        "115733.647500",
        "115734.647500",
        "115735.647500",
        "115736.647500",
        "115737.647500",
        "115738.647500",
        "115739.647500",
        "115740.647500",
        "115741.647500",
        "115742.647500",
        "115743.647500",
        "115744.647500",
        "115745.647500",
        "115746.647500",
        "115747.647500",
        "115748.647500",
        "115749.647500",
        "115750.647500",
        "115751.647500",
        "115752.647500",
        "115753.647500",
        "115754.647500",
        "115755.647500",
        "115756.647500",
        "115757.647500",
        "115758.647500",
        "115759.647500",
        "115800.647500",
        "115801.647500",
        "115802.647500",
        "115803.647500",
        "115804.647500",
        "115805.647500",
        "115806.647500",
        "115807.647500",
        "115808.647500",
        "115809.647500",
        "115810.647500",
        "115811.647500",
        "115812.647500",
        "115813.647500",
        "115814.647500",
        "115815.647500",
        "115816.647500",
        "115817.647500",
        "115818.647500",
        "115819.647500",
        "115820.647500",
        "115821.647500",
        "115822.647500",
        "115823.647500",
        "115824.647500",
        "115825.647500",
        "115826.647500",
        "115827.647500",
        "115828.647500",
        "115829.647500",
        "115830.647500",
        "115831.647500",
        "115832.647500",
        "115833.647500",
        "115834.647500",
        "115835.647500",
        "115836.647500",
        "115837.647500",
        "115838.647500",
        "115839.647500",
        "115840.647500",
        "115841.647500",
        "115842.647500",
        "115843.647500",
        "115844.647500",
        "115845.647500",
        "115846.647500",
        "115847.647500",
        "115848.647500",
        "115849.647500",
        "115850.647500",
        "115851.647500",
        "115852.647500",
        "115853.647500",
        "115854.647500",
        "115855.647500",
        "115856.647500",
        "115857.647500",
        "115858.647500",
        "115859.647500",
        "115900.647500",
        "115901.647500",
        "115902.647500",
        "115903.647500",
        "115904.647500",
        "115905.647500",
        "115906.647500",
        "115907.647500",
        "115908.647500",
        "115909.647500",
        "115910.647500",
        "115911.647500",
        "115912.647500",
        "115913.647500",
        "115914.647500",
        "115915.647500",
        "115916.647500",
        "115917.647500",
        "115918.647500",
        "115919.647500",
        "115920.647500",
        "115921.647500",
        "115922.647500",
        "115923.647500",
        "115924.647500",
        "115925.647500",
        "115926.647500",
        "115927.647500"
      ],
      "ContentTime": [
        "115442.370000",
        "115443.176000",
        "115444.164000",
        "115445.146000",
        "115446.153000",
        "115447.186000",
        "115448.180000",
        "115449.182000",
        "115450.179000",
        "115451.155000",
        "115452.179000",
        "115453.178000",
        "115454.196000",
        "115455.171000",
        "115456.186000",
        "115457.172000",
        "115458.162000",
        "115459.164000",
        "115500.149000",
        "115501.164000",
        "115502.199000",
        "115503.147000",
        "115504.147000",
        "115505.157000",
        "115506.189000",
        "115507.174000",
        "115508.184000",
        "115509.172000",
        "115510.189000",
        "115511.177000",
        "115512.173000",
        "115513.157000",
        "115514.185000",
        "115515.153000",
        "115516.182000",
        "115517.183000",
        "115518.155000",
        "115519.169000",
        "115520.165000",
        "115521.162000",
        "115522.143000",
        "115523.180000",
        "115524.200000",
        "115525.158000",
        "115526.162000",
        "115527.143000",
        "115528.169000",
        "115529.172000",
        "115530.189000",
        "115531.159000",
        "115532.135000",
        "115533.186000",
        "115534.159000",
        "115535.146000",
        "115536.134000",
        "115537.172000",
        "115538.187000",
        "115539.161000",
        "115540.174000",
        "115541.167000",
        "115542.257000",
        "115543.189000",
        "115544.188000",
        "115545.169000",
        "115546.167000",
        "115547.250000",
        "115548.197000",
        "115549.193000",
        "115550.161000",
        "115551.186000",
        "115552.170000",
        "115553.180000",
        "115554.164000",
        "115555.173000",
        "115556.209000",
        "115557.168000",
        "115558.156000",
        "115559.157000",
        "115600.172000",
        "115601.199000",
        "115602.173000",
        "115603.172000",
        "115604.228000",
        "115605.178000",
        "115606.176000",
        "115607.200000",
        "115608.178000",
        "115609.169000",
        "115610.177000",
        "115611.161000",
        "115612.183000",
        "115613.161000",
        "115614.164000",
        "115615.165000",
        "115616.194000",
        "115617.169000",
        "115618.165000",
        "115619.181000",
        "115620.215000",
        "115621.182000",
        "115622.179000",
        "115623.190000",
        "115624.202000",
        "115625.182000",
        "115626.201000",
        "115627.203000",
        "115628.182000",
        "115629.155000",
        "115630.175000",
        "115631.174000",
        "115632.163000",
        "115633.185000",
        "115634.187000",
        "115635.173000",
        "115636.150000",
        "115637.173000",
        "115638.147000",
        "115639.188000",
        "115640.179000",
        "115641.193000",
        "115642.179000",
        "115643.196000",
        "115644.168000",
        "115645.179000",
        "115646.209000",
        "115647.189000",
        "115648.288000",
        "115649.167000",
        "115650.186000",
        "115651.176000",
        "115652.159000",
        "115653.193000",
        "115654.156000",
        "115655.163000",
        "115656.180000",
        "115657.156000",
        "115658.233000",
        "115659.143000",
        "115700.194000",
        "115701.235000",
        "115702.176000",
        "115703.194000",
        "115704.162000",
        "115705.161000",
        "115706.180000",
        "115707.147000",
        "115708.178000",
        "115709.151000",
        "115710.205000",
        "115711.193000",
        "115712.175000",
        "115713.207000",
        "115714.230000",
        "115715.199000",
        "115716.153000",
        "115717.148000",
        "115718.181000",
        "115719.169000",
        "115720.163000",
        "115721.159000",
        "115722.139000",
        "115723.199000",
        "115724.154000",
        "115725.208000",
        "115726.251000",
        "115727.171000",
        "115728.199000",
        "115729.194000",
        "115730.140000",
        "115731.180000",
        "115732.176000",
        "115733.175000",
        "115734.203000",
        "115735.164000",
        "115736.176000",
        "115737.220000",
        "115738.150000",
        "115739.172000",
        "115740.204000",
        "115741.156000",
        "115742.154000",
        "115743.179000",
        "115744.158000",
        "115745.184000",
        "115746.201000",
        "115747.154000",
        "115748.151000",
        "115749.182000",
        "115750.159000",
        "115751.174000",
        "115752.216000",
        "115753.175000",
        "115754.191000",
        "115755.185000",
        "115756.150000",
        "115757.165000",
        "115758.152000",
        "115759.181000",
        "115800.151000",
        "115801.214000",
        "115802.180000",
        "115803.173000",
        "115804.201000",
        "115805.182000",
        "115806.175000",
        "115807.177000",
        "115808.211000",
        "115809.180000",
        "115810.153000",
        "115811.179000",
        "115812.187000",
        "115813.149000",
        "115814.214000",
        "115815.135000",
        "115816.187000",
        "115817.183000",
        "115818.157000",
        "115819.172000",
        "115820.178000",
        "115821.167000",
        "115822.193000",
        "115823.184000",
        "115824.211000",
        "115825.189000",
        "115826.186000",
        "115827.186000",
        "115828.143000",
        "115829.166000",
        "115830.177000",
        "115831.152000",
        "115832.142000",
        "115833.160000",
        "115834.150000",
        "115835.179000",
        "115836.200000",
        "115837.204000",
        "115838.203000",
        "115839.168000",
        "115840.195000",
        "115841.162000",
        "115842.158000",
        "115843.245000",
        "115844.202000",
        "115845.155000",
        "115846.200000",
        "115847.228000",
        "115848.164000",
        "115849.153000",
        "115850.156000",
        "115851.158000",
        "115852.162000",
        "115853.212000",
        "115854.170000",
        "115855.181000",
        "115856.171000",
        "115857.146000",
        "115858.135000",
        "115859.193000",
        "115900.168000",
        "115901.160000",
        "115902.170000",
        "115903.203000",
        "115904.206000",
        "115905.163000",
        "115906.194000",
        "115907.200000",
        "115908.238000",
        "115909.180000",
        "115910.220000",
        "115911.228000",
        "115912.176000",
        "115913.137000",
        "115914.206000",
        "115915.200000",
        "115916.236000",
        "115917.186000",
        "115918.212000",
        "115919.154000",
        "115920.200000",
        "115921.180000",
        "115922.252000",
        "115923.121000",
        "115924.193000",
        "115925.177000",
        "115926.199000",
        "115927.163000",
        "115928.184000",
        "115929.217000"
      ],
      "InstanceCreationTime": [
        "115442.370000",
        "115443.176000",
        "115444.164000",
        "115445.146000",
        "115446.153000",
        "115447.186000",
        "115448.180000",
        "115449.182000",
        "115450.179000",
        "115451.155000",
        "115452.179000",
        "115453.178000",
        "115454.196000",
        "115455.171000",
        "115456.186000",
        "115457.172000",
        "115458.162000",
        "115459.164000",
        "115500.149000",
        "115501.164000",
        "115502.199000",
        "115503.147000",
        "115504.147000",
        "115505.157000",
        "115506.189000",
        "115507.174000",
        "115508.184000",
        "115509.172000",
        "115510.189000",
        "115511.177000",
        "115512.173000",
        "115513.157000",
        "115514.185000",
        "115515.153000",
        "115516.182000",
        "115517.183000",
        "115518.155000",
        "115519.169000",
        "115520.165000",
        "115521.162000",
        "115522.143000",
        "115523.180000",
        "115524.200000",
        "115525.158000",
        "115526.162000",
        "115527.143000",
        "115528.169000",
        "115529.172000",
        "115530.189000",
        "115531.159000",
        "115532.135000",
        "115533.186000",
        "115534.159000",
        "115535.146000",
        "115536.134000",
        "115537.172000",
        "115538.187000",
        "115539.161000",
        "115540.174000",
        "115541.167000",
        "115542.257000",
        "115543.189000",
        "115544.188000",
        "115545.169000",
        "115546.167000",
        "115547.250000",
        "115548.197000",
        "115549.193000",
        "115550.161000",
        "115551.186000",
        "115552.170000",
        "115553.180000",
        "115554.164000",
        "115555.173000",
        "115556.209000",
        "115557.168000",
        "115558.156000",
        "115559.157000",
        "115600.172000",
        "115601.199000",
        "115602.173000",
        "115603.172000",
        "115604.228000",
        "115605.178000",
        "115606.176000",
        "115607.200000",
        "115608.178000",
        "115609.169000",
        "115610.177000",
        "115611.161000",
        "115612.183000",
        "115613.161000",
        "115614.164000",
        "115615.165000",
        "115616.194000",
        "115617.169000",
        "115618.165000",
        "115619.181000",
        "115620.215000",
        "115621.182000",
        "115622.179000",
        "115623.190000",
        "115624.202000",
        "115625.182000",
        "115626.201000",
        "115627.203000",
        "115628.182000",
        "115629.155000",
        "115630.175000",
        "115631.174000",
        "115632.163000",
        "115633.185000",
        "115634.187000",
        "115635.173000",
        "115636.150000",
        "115637.173000",
        "115638.147000",
        "115639.188000",
        "115640.179000",
        "115641.193000",
        "115642.179000",
        "115643.196000",
        "115644.168000",
        "115645.179000",
        "115646.209000",
        "115647.189000",
        "115648.288000",
        "115649.167000",
        "115650.186000",
        "115651.176000",
        "115652.159000",
        "115653.193000",
        "115654.156000",
        "115655.163000",
        "115656.180000",
        "115657.156000",
        "115658.233000",
        "115659.143000",
        "115700.194000",
        "115701.235000",
        "115702.176000",
        "115703.194000",
        "115704.162000",
        "115705.161000",
        "115706.180000",
        "115707.147000",
        "115708.178000",
        "115709.151000",
        "115710.205000",
        "115711.193000",
        "115712.175000",
        "115713.207000",
        "115714.230000",
        "115715.199000",
        "115716.153000",
        "115717.148000",
        "115718.181000",
        "115719.169000",
        "115720.163000",
        "115721.159000",
        "115722.139000",
        "115723.199000",
        "115724.154000",
        "115725.208000",
        "115726.251000",
        "115727.171000",
        "115728.199000",
        "115729.194000",
        "115730.140000",
        "115731.180000",
        "115732.176000",
        "115733.175000",
        "115734.203000",
        "115735.164000",
        "115736.176000",
        "115737.220000",
        "115738.150000",
        "115739.172000",
        "115740.204000",
        "115741.156000",
        "115742.154000",
        "115743.179000",
        "115744.158000",
        "115745.184000",
        "115746.201000",
        "115747.154000",
        "115748.151000",
        "115749.182000",
        "115750.159000",
        "115751.174000",
        "115752.216000",
        "115753.175000",
        "115754.191000",
        "115755.185000",
        "115756.150000",
        "115757.165000",
        "115758.152000",
        "115759.181000",
        "115800.151000",
        "115801.214000",
        "115802.180000",
        "115803.173000",
        "115804.201000",
        "115805.182000",
        "115806.175000",
        "115807.177000",
        "115808.211000",
        "115809.180000",
        "115810.153000",
        "115811.179000",
        "115812.187000",
        "115813.149000",
        "115814.214000",
        "115815.135000",
        "115816.187000",
        "115817.183000",
        "115818.157000",
        "115819.172000",
        "115820.178000",
        "115821.167000",
        "115822.193000",
        "115823.184000",
        "115824.211000",
        "115825.189000",
        "115826.186000",
        "115827.186000",
        "115828.143000",
        "115829.166000",
        "115830.177000",
        "115831.152000",
        "115832.142000",
        "115833.160000",
        "115834.150000",
        "115835.179000",
        "115836.200000",
        "115837.204000",
        "115838.203000",
        "115839.168000",
        "115840.195000",
        "115841.162000",
        "115842.158000",
        "115843.245000",
        "115844.202000",
        "115845.155000",
        "115846.200000",
        "115847.228000",
        "115848.164000",
        "115849.153000",
        "115850.156000",
        "115851.158000",
        "115852.162000",
        "115853.212000",
        "115854.170000",
        "115855.181000",
        "115856.171000",
        "115857.146000",
        "115858.135000",
        "115859.193000",
        "115900.168000",
        "115901.160000",
        "115902.170000",
        "115903.203000",
        "115904.206000",
        "115905.163000",
        "115906.194000",
        "115907.200000",
        "115908.238000",
        "115909.180000",
        "115910.220000",
        "115911.228000",
        "115912.176000",
        "115913.137000",
        "115914.206000",
        "115915.200000",
        "115916.236000",
        "115917.186000",
        "115918.212000",
        "115919.154000",
        "115920.200000",
        "115921.180000",
        "115922.252000",
        "115923.121000",
        "115924.193000",
        "115925.177000",
        "115926.199000",
        "115927.163000",
        "115928.184000",
        "115929.217000"
      ],
      "InstanceNumber": [
        1,
        2,
        3,
        4,
        5,
        6,
        7,
        8,
        9,
        10,
        11,
        12,
        13,
        14,
        15,
        16,
        17,
        18,
        19,
        20,
        21,
        22,
        23,
        24,
        25,
        26,
        27,
        28,
        29,
        30,
        31,
        32,
        33,
        34,
        35,
        36,
        37,
        38,
        39,
        40,
        41,
        42,
        43,
        44,
        45,
        46,
        47,
        48,
        49,
        50,
        51,
        52,
        53,
        54,
        55,
        56,
        57,
        58,
        59,
        60,
        61,
        62,
        63,
        64,
        65,
        66,
        67,
        68,
        69,
        70,
        71,
        72,
        73,
        74,
        75,
        76,
        77,
        78,
        79,
        80,
        81,
        82,
        83,
        84,
        85,
        86,
        87,
        88,
        89,
        90,
        91,
        92,
        93,
        94,
        95,
        96,
        97,
        98,
        99,
        100,
        101,
        102,
        103,
        104,
        105,
        106,
        107,
        108,
        109,
        110,
        111,
        112,
        113,
        114,
        115,
        116,
        117,
        118,
        119,
        120,
        121,
        122,
        123,
        124,
        125,
        126,
        127,
        128,
        129,
        130,
        131,
        132,
        133,
        134,
        135,
        136,
        137,
        138,
        139,
        140,
        141,
        142,
        143,
        144,
        145,
        146,
        147,
        148,
        149,
        150,
        151,
        152,
        153,
        154,
        155,
        156,
        157,
        158,
        159,
        160,
        161,
        162,
        163,
        164,
        165,
        166,
        167,
        168,
        169,
        170,
        171,
        172,
        173,
        174,
        175,
        176,
        177,
        178,
        179,
        180,
        181,
        182,
        183,
        184,
        185,
        186,
        187,
        188,
        189,
        190,
        191,
        192,
        193,
        194,
        195,
        196,
