{
  "AcquisitionMatrixPE": 96,
  "AcquisitionNumber": 1,
  "BandwidthPerPixelPhaseEncode": 18.939,
  "BaseResolution": 96,
  "BodyPartExamined": "BRAIN",
  "ConsistencyInfo": "N4_VE11C_LATEST_20160120",
  "ConversionSoftware": "dcm2niix",
  "ConversionSoftwareVersion": "v1.0.20170923 (OpenJPEG build) GCC6.3.0",
  "DerivedVendorReportedEchoSpacing": 0.000550011,
  "DeviceSerialNumber": "66112",
  "DwellTime": 2.2e-06,
  "EchoTime": 0.033,
  "EchoTrainLength": 96,
  "EffectiveEchoSpacing": 0.000550011,
  "FlipAngle": 59,
  "ImageType": [
    "ORIGINAL",
    "PRIMARY",
    "FMRI",
    "NONE",
    "ND",
    "NORM",
    "MOSAIC"
  ],
  "InstitutionAddress": "Maynard_3_Hanover_NH_US_03755",
  "InstitutionName": "Dartmouth_College_-_PBS",
  "MagneticFieldStrength": 3,
  "Manufacturer": "Siemens",
  "ManufacturersModelName": "Prisma",
  "Modality": "MR",
  "MultibandAccelerationFactor": 4,
  "PartialFourier": 1,
  "PercentPhaseFOV": 100,
  "PhaseEncodingDirection": "j-",
  "PhaseEncodingSteps": 96,
  "PhaseResolution": 1,
  "ProcedureStepDescription": "Gobbini_Matteo_1038_hyperface",
  "ProtocolName": "func_run-06_task-visualmemory",
  "PulseSequenceDetails": "%SiemensSeq%_ep2d_bold",
  "ReceiveCoilActiveElements": "HEA;HEP",
  "ReceiveCoilName": "Head_32",
  "ReconMatrixPE": 96,
  "RepetitionTime": 1,
  "ScanOptions": "FS",
  "ScanningSequence": "EP",
  "SequenceName": "_epfid2d1_96",
  "SequenceVariant": "SK",
  "SeriesDescription": "func_run-06_task-visualmemory",
  "SliceTiming": [
    0.735,
    0,
    0.49,
    0.08,
    0.57,
    0.1625,
    0.6525,
    0.325,
    0.815,
    0.4075,
    0.8975,
    0.245,
    0.735,
    0,
    0.49,
    0.08,
    0.57,
    0.1625,
    0.6525,
    0.325,
    0.815,
    0.4075,
    0.8975,
    0.245,
    0.735,
    0,
    0.49,
    0.08,
    0.57,
    0.1625,
    0.6525,
    0.325,
    0.815,
    0.4075,
    0.8975,
    0.245,
    0.735,
    0,
    0.49,
    0.08,
    0.57,
    0.1625,
    0.6525,
    0.325,
    0.815,
    0.4075,
    0.8975,
    0.245
  ],
  "SoftwareVersions": "syngo_MR_E11",
  "StationName": "AWP66112",
  "TotalReadoutTime": 0.0522511,
  "time": {
    "samples": {
      "AcquisitionNumber": [
        1,
        2,
        3,
        4,
        5,
        6,
        7,
        8,
        9,
        10,
        11,
        12,
        13,
        14,
        15,
        16,
        17,
        18,
        19,
        20,
        21,
        22,
        23,
        24,
        25,
        26,
        27,
        28,
        29,
        30,
        31,
        32,
        33,
        34,
        35,
        36,
        37,
        38,
        39,
        40,
        41,
        42,
        43,
        44,
        45,
        46,
        47,
        48,
        49,
        50,
        51,
        52,
        53,
        54,
        55,
        56,
        57,
        58,
        59,
        60,
        61,
        62,
        63,
        64,
        65,
        66,
        67,
        68,
        69,
        70,
        71,
        72,
        73,
        74,
        75,
        76,
        77,
        78,
        79,
        80,
        81,
        82,
        83,
        84,
        85,
        86,
        87,
        88,
        89,
        90,
        91,
        92,
        93,
        94,
        95,
        96,
        97,
        98,
        99,
        100,
        101,
        102,
        103,
        104,
        105,
        106,
        107,
        108,
        109,
        110,
        111,
        112,
        113,
        114,
        115,
        116,
        117,
        118,
        119,
        120,
        121,
        122,
        123,
        124,
        125,
        126,
        127,
        128,
        129,
        130,
        131,
        132,
        133,
        134,
        135,
        136,
        137,
        138,
        139,
        140,
        141,
        142,
        143,
        144,
        145,
        146,
        147,
        148,
        149,
        150,
        151,
        152,
        153,
        154,
        155,
        156,
        157,
        158,
        159,
        160,
        161,
        162,
        163,
        164,
        165,
        166,
        167,
        168,
        169,
        170,
        171,
        172,
        173,
        174,
        175,
        176,
        177,
        178,
        179,
        180,
        181,
        182,
        183,
        184,
        185,
        186,
        187,
        188,
        189,
        190,
        191,
        192,
        193,
        194,
        195,
        196,
        197,
        198,
        199,
        200,
        201,
        202,
        203,
        204,
        205,
        206,
        207,
        208,
        209,
        210,
        211,
        212,
        213,
        214,
        215,
        216,
        217,
        218,
        219,
        220,
        221,
        222,
        223,
        224,
        225,
        226,
        227,
        228,
        229,
        230,
        231,
        232,
        233,
        234,
        235,
        236,
        237,
        238,
        239,
        240,
        241,
        242,
        243,
        244,
        245,
        246,
        247,
        248,
        249,
        250,
        251,
        252,
        253,
        254,
        255,
        256,
        257,
        258,
        259,
        260,
        261,
        262,
        263,
        264,
        265,
        266,
        267,
        268,
        269,
        270,
        271,
        272,
        273,
        274,
        275,
        276,
        277,
        278,
        279,
        280,
        281,
        282,
        283,
        284,
        285,
        286,
        287,
        288
      ],
      "AcquisitionTime": [
        "121022.655000",
        "121023.655000",
        "121024.655000",
        "121025.655000",
        "121026.655000",
        "121027.655000",
        "121028.655000",
        "121029.655000",
        "121030.655000",
        "121031.655000",
        "121032.655000",
        "121033.655000",
        "121034.655000",
        "121035.655000",
        "121036.655000",
        "121037.655000",
        "121038.655000",
        "121039.655000",
        "121040.655000",
        "121041.655000",
        "121042.655000",
        "121043.655000",
        "121044.655000",
        "121045.655000",
        "121046.655000",
        "121047.655000",
        "121048.655000",
        "121049.655000",
        "121050.655000",
        "121051.655000",
        "121052.655000",
        "121053.655000",
        "121054.655000",
        "121055.655000",
        "121056.655000",
        "121057.655000",
        "121058.655000",
        "121059.655000",
        "121100.655000",
        "121101.655000",
        "121102.655000",
        "121103.655000",
        "121104.655000",
        "121105.655000",
        "121106.655000",
        "121107.655000",
        "121108.655000",
        "121109.655000",
        "121110.655000",
        "121111.655000",
        "121112.655000",
        "121113.655000",
        "121114.655000",
        "121115.655000",
        "121116.655000",
        "121117.655000",
        "121118.655000",
        "121119.655000",
        "121120.655000",
        "121121.655000",
        "121122.655000",
        "121123.655000",
        "121124.655000",
        "121125.655000",
        "121126.655000",
        "121127.655000",
        "121128.655000",
        "121129.655000",
        "121130.655000",
        "121131.655000",
        "121132.655000",
        "121133.655000",
        "121134.655000",
        "121135.655000",
        "121136.655000",
        "121137.655000",
        "121138.655000",
        "121139.655000",
        "121140.655000",
        "121141.655000",
        "121142.655000",
        "121143.655000",
        "121144.655000",
        "121145.655000",
        "121146.655000",
        "121147.655000",
        "121148.655000",
        "121149.655000",
        "121150.655000",
        "121151.655000",
        "121152.655000",
        "121153.655000",
        "121154.655000",
        "121155.655000",
        "121156.655000",
        "121157.655000",
        "121158.655000",
        "121159.655000",
        "121200.655000",
        "121201.655000",
        "121202.655000",
        "121203.655000",
        "121204.655000",
        "121205.655000",
        "121206.655000",
        "121207.655000",
        "121208.655000",
        "121209.655000",
        "121210.655000",
        "121211.655000",
        "121212.655000",
        "121213.655000",
        "121214.655000",
        "121215.655000",
        "121216.655000",
        "121217.655000",
        "121218.655000",
        "121219.655000",
        "121220.655000",
        "121221.655000",
        "121222.655000",
        "121223.655000",
        "121224.655000",
        "121225.655000",
        "121226.655000",
        "121227.655000",
        "121228.655000",
        "121229.655000",
        "121230.655000",
        "121231.655000",
        "121232.655000",
        "121233.655000",
        "121234.655000",
        "121235.655000",
        "121236.655000",
        "121237.655000",
        "121238.655000",
        "121239.655000",
        "121240.655000",
        "121241.655000",
        "121242.655000",
        "121243.655000",
        "121244.655000",
        "121245.655000",
        "121246.655000",
        "121247.655000",
        "121248.655000",
        "121249.655000",
        "121250.655000",
        "121251.655000",
        "121252.655000",
        "121253.655000",
        "121254.655000",
        "121255.655000",
        "121256.655000",
        "121257.655000",
        "121258.655000",
        "121259.655000",
        "121300.655000",
        "121301.655000",
        "121302.655000",
        "121303.655000",
        "121304.655000",
        "121305.655000",
        "121306.655000",
        "121307.655000",
        "121308.655000",
        "121309.655000",
        "121310.655000",
        "121311.655000",
        "121312.655000",
        "121313.655000",
        "121314.655000",
        "121315.655000",
        "121316.655000",
        "121317.655000",
        "121318.655000",
        "121319.655000",
        "121320.655000",
        "121321.655000",
        "121322.655000",
        "121323.655000",
        "121324.655000",
        "121325.655000",
        "121326.655000",
        "121327.655000",
        "121328.655000",
        "121329.655000",
        "121330.655000",
        "121331.655000",
        "121332.655000",
        "121333.655000",
        "121334.655000",
        "121335.655000",
        "121336.655000",
        "121337.655000",
        "121338.655000",
        "121339.655000",
        "121340.655000",
        "121341.655000",
        "121342.655000",
        "121343.655000",
        "121344.655000",
        "121345.655000",
        "121346.655000",
        "121347.655000",
        "121348.655000",
        "121349.655000",
        "121350.655000",
        "121351.655000",
        "121352.655000",
        "121353.655000",
        "121354.655000",
        "121355.655000",
        "121356.655000",
        "121357.655000",
        "121358.655000",
        "121359.655000",
        "121400.655000",
        "121401.655000",
        "121402.655000",
        "121403.655000",
        "121404.655000",
        "121405.655000",
        "121406.655000",
        "121407.655000",
        "121408.655000",
        "121409.655000",
        "121410.655000",
        "121411.655000",
        "121412.655000",
        "121413.655000",
        "121414.655000",
        "121415.655000",
        "121416.655000",
        "121417.655000",
        "121418.655000",
        "121419.655000",
        "121420.655000",
        "121421.655000",
        "121422.655000",
        "121423.655000",
        "121424.655000",
        "121425.655000",
        "121426.655000",
        "121427.655000",
        "121428.655000",
        "121429.655000",
        "121430.655000",
        "121431.655000",
        "121432.655000",
        "121433.655000",
        "121434.655000",
        "121435.655000",
        "121436.655000",
        "121437.655000",
        "121438.655000",
        "121439.655000",
        "121440.655000",
        "121441.655000",
        "121442.655000",
        "121443.655000",
        "121444.655000",
        "121445.655000",
        "121446.655000",
        "121447.655000",
        "121448.655000",
        "121449.655000",
        "121450.655000",
        "121451.655000",
        "121452.655000",
        "121453.655000",
        "121454.655000",
        "121455.655000",
        "121456.655000",
        "121457.655000",
        "121458.655000",
        "121459.655000",
        "121500.655000",
        "121501.655000",
        "121502.655000",
        "121503.655000",
        "121504.655000",
        "121505.655000",
        "121506.655000",
        "121507.655000",
        "121508.655000",
        "121509.655000"
      ],
      "ContentTime": [
        "121023.556000",
        "121024.384000",
        "121025.370000",
        "121026.374000",
        "121027.386000",
        "121028.371000",
        "121029.367000",
        "121030.389000",
        "121031.410000",
        "121032.372000",
        "121033.388000",
        "121034.381000",
        "121035.418000",
        "121036.389000",
        "121037.381000",
        "121038.389000",
        "121039.395000",
        "121040.382000",
        "121041.360000",
        "121042.379000",
        "121043.387000",
        "121044.365000",
        "121045.380000",
        "121046.397000",
        "121047.369000",
        "121048.422000",
        "121049.363000",
        "121050.342000",
        "121051.358000",
        "121052.350000",
        "121053.377000",
        "121054.365000",
        "121055.372000",
        "121056.365000",
        "121057.378000",
        "121058.376000",
        "121059.392000",
        "121100.354000",
        "121101.388000",
        "121102.392000",
        "121103.371000",
        "121104.367000",
        "121105.382000",
        "121106.368000",
        "121107.369000",
        "121108.370000",
        "121109.361000",
        "121110.383000",
        "121111.406000",
        "121112.368000",
        "121113.345000",
        "121114.382000",
        "121115.385000",
        "121116.344000",
        "121117.364000",
        "121118.371000",
        "121119.385000",
        "121120.445000",
        "121121.384000",
        "121122.355000",
        "121123.366000",
        "121124.345000",
        "121125.350000",
        "121126.383000",
        "121127.368000",
        "121128.341000",
        "121129.340000",
        "121130.406000",
        "121131.394000",
        "121132.394000",
        "121133.345000",
        "121134.345000",
        "121135.355000",
        "121136.371000",
        "121137.351000",
        "121138.399000",
        "121139.402000",
        "121140.350000",
        "121141.352000",
        "121142.358000",
        "121143.360000",
        "121144.389000",
        "121145.331000",
        "121146.361000",
        "121147.392000",
        "121148.377000",
        "121149.404000",
        "121150.403000",
        "121151.388000",
        "121152.390000",
        "121153.383000",
        "121154.330000",
        "121155.338000",
        "121156.361000",
        "121157.355000",
        "121158.369000",
        "121159.376000",
        "121200.356000",
        "121201.359000",
        "121202.379000",
        "121203.379000",
        "121204.396000",
        "121205.368000",
        "121206.367000",
        "121207.379000",
        "121208.381000",
        "121209.396000",
        "121210.365000",
        "121211.365000",
        "121212.350000",
        "121213.374000",
        "121214.407000",
        "121215.359000",
        "121216.363000",
        "121217.385000",
        "121218.368000",
        "121219.400000",
        "121220.383000",
        "121221.397000",
        "121222.413000",
        "121223.340000",
        "121224.378000",
        "121225.408000",
        "121226.370000",
        "121227.410000",
        "121228.391000",
        "121229.391000",
        "121230.385000",
        "121231.382000",
        "121232.365000",
        "121233.383000",
        "121234.380000",
        "121235.393000",
        "121236.368000",
        "121237.359000",
        "121238.391000",
        "121239.372000",
        "121240.382000",
        "121241.375000",
        "121242.387000",
        "121243.376000",
        "121244.365000",
        "121245.370000",
        "121246.391000",
        "121247.387000",
        "121248.376000",
        "121249.374000",
        "121250.355000",
        "121251.382000",
        "121252.374000",
        "121253.393000",
        "121254.380000",
        "121255.343000",
        "121256.379000",
        "121257.370000",
        "121258.362000",
        "121259.365000",
        "121300.367000",
        "121301.377000",
        "121302.369000",
        "121303.343000",
        "121304.400000",
        "121305.367000",
        "121306.371000",
        "121307.369000",
        "121308.399000",
        "121309.392000",
        "121310.384000",
        "121311.375000",
        "121312.384000",
        "121313.404000",
        "121314.416000",
        "121315.357000",
        "121316.389000",
        "121317.435000",
        "121318.378000",
        "121319.388000",
        "121320.351000",
        "121321.373000",
        "121322.371000",
        "121323.374000",
        "121324.396000",
        "121325.381000",
        "121326.345000",
        "121327.385000",
        "121328.341000",
        "121329.376000",
        "121330.370000",
        "121331.367000",
        "121332.354000",
        "121333.396000",
        "121334.371000",
        "121335.367000",
        "121336.354000",
        "121337.385000",
        "121338.382000",
        "121339.370000",
        "121340.387000",
        "121341.392000",
        "121342.389000",
        "121343.373000",
        "121344.357000",
        "121345.320000",
        "121346.377000",
        "121347.349000",
        "121348.373000",
        "121349.389000",
        "121350.365000",
        "121351.373000",
        "121352.372000",
        "121353.373000",
        "121354.379000",
        "121355.380000",
        "121356.349000",
        "121357.368000",
        "121358.405000",
        "121359.344000",
        "121400.372000",
        "121401.376000",
        "121402.386000",
        "121403.362000",
        "121404.387000",
        "121405.403000",
        "121406.368000",
        "121407.374000",
        "121408.363000",
        "121409.383000",
        "121410.399000",
        "121411.369000",
        "121412.382000",
        "121413.408000",
        "121414.355000",
        "121415.378000",
        "121416.374000",
        "121417.381000",
        "121418.366000",
        "121419.380000",
        "121420.368000",
        "121421.368000",
        "121422.400000",
        "121423.400000",
        "121424.355000",
        "121425.371000",
        "121426.392000",
        "121427.364000",
        "121428.374000",
        "121429.415000",
        "121430.376000",
        "121431.371000",
        "121432.380000",
        "121433.371000",
        "121434.371000",
        "121435.402000",
        "121436.384000",
        "121437.377000",
        "121438.402000",
        "121439.358000",
        "121440.376000",
        "121441.361000",
        "121442.378000",
        "121443.402000",
        "121444.362000",
        "121445.365000",
        "121446.374000",
        "121447.342000",
        "121448.375000",
        "121449.353000",
        "121450.383000",
        "121451.382000",
        "121452.380000",
        "121453.373000",
        "121454.373000",
        "121455.377000",
        "121456.394000",
        "121457.411000",
        "121458.385000",
        "121459.409000",
        "121500.399000",
        "121501.382000",
        "121502.386000",
        "121503.377000",
        "121504.373000",
        "121505.368000",
        "121506.387000",
        "121507.352000",
        "121508.378000",
        "121509.358000",
        "121510.407000"
      ],
      "InstanceCreationTime": [
        "121023.556000",
        "121024.384000",
        "121025.370000",
        "121026.374000",
        "121027.386000",
        "121028.371000",
        "121029.367000",
        "121030.389000",
        "121031.410000",
        "121032.372000",
        "121033.388000",
        "121034.381000",
        "121035.418000",
        "121036.389000",
        "121037.381000",
        "121038.389000",
        "121039.395000",
        "121040.382000",
        "121041.360000",
        "121042.379000",
        "121043.387000",
        "121044.365000",
        "121045.380000",
        "121046.397000",
        "121047.369000",
        "121048.422000",
        "121049.363000",
        "121050.342000",
        "121051.358000",
        "121052.350000",
        "121053.377000",
        "121054.365000",
        "121055.372000",
        "121056.365000",
        "121057.378000",
        "121058.376000",
        "121059.392000",
        "121100.354000",
        "121101.388000",
        "121102.392000",
        "121103.371000",
        "121104.367000",
        "121105.382000",
        "121106.368000",
        "121107.369000",
        "121108.370000",
        "121109.361000",
        "121110.383000",
        "121111.406000",
        "121112.368000",
        "121113.345000",
        "121114.382000",
        "121115.385000",
        "121116.344000",
        "121117.364000",
        "121118.371000",
        "121119.385000",
        "121120.445000",
        "121121.384000",
        "121122.355000",
        "121123.366000",
        "121124.345000",
        "121125.350000",
        "121126.383000",
        "121127.368000",
        "121128.341000",
        "121129.340000",
        "121130.406000",
        "121131.394000",
        "121132.394000",
        "121133.345000",
        "121134.345000",
        "121135.355000",
        "121136.371000",
        "121137.351000",
        "121138.399000",
        "121139.402000",
        "121140.350000",
        "121141.352000",
        "121142.358000",
        "121143.360000",
        "121144.389000",
        "121145.331000",
        "121146.361000",
        "121147.392000",
        "121148.377000",
        "121149.404000",
        "121150.403000",
        "121151.388000",
        "121152.390000",
        "121153.383000",
        "121154.330000",
        "121155.338000",
        "121156.361000",
        "121157.355000",
        "121158.369000",
        "121159.376000",
        "121200.356000",
        "121201.359000",
        "121202.379000",
        "121203.379000",
        "121204.396000",
        "121205.368000",
        "121206.367000",
        "121207.379000",
        "121208.381000",
        "121209.396000",
        "121210.365000",
        "121211.365000",
        "121212.350000",
        "121213.374000",
        "121214.407000",
        "121215.359000",
        "121216.363000",
        "121217.385000",
        "121218.368000",
        "121219.400000",
        "121220.383000",
        "121221.397000",
        "121222.413000",
        "121223.340000",
        "121224.378000",
        "121225.408000",
        "121226.370000",
        "121227.410000",
        "121228.391000",
        "121229.391000",
        "121230.385000",
        "121231.382000",
        "121232.365000",
        "121233.383000",
        "121234.380000",
        "121235.393000",
        "121236.368000",
        "121237.359000",
        "121238.391000",
        "121239.372000",
        "121240.382000",
        "121241.375000",
        "121242.387000",
        "121243.376000",
        "121244.365000",
        "121245.370000",
        "121246.391000",
        "121247.387000",
        "121248.376000",
        "121249.374000",
        "121250.355000",
        "121251.382000",
        "121252.374000",
        "121253.393000",
        "121254.380000",
        "121255.343000",
        "121256.379000",
        "121257.370000",
        "121258.362000",
        "121259.365000",
        "121300.367000",
        "121301.377000",
        "121302.369000",
        "121303.343000",
        "121304.400000",
        "121305.367000",
        "121306.371000",
        "121307.369000",
        "121308.399000",
        "121309.392000",
        "121310.384000",
        "121311.375000",
        "121312.384000",
        "121313.404000",
        "121314.416000",
        "121315.357000",
        "121316.389000",
        "121317.435000",
        "121318.378000",
        "121319.388000",
        "121320.351000",
        "121321.373000",
        "121322.371000",
        "121323.374000",
        "121324.396000",
        "121325.381000",
        "121326.345000",
        "121327.385000",
        "121328.341000",
        "121329.376000",
        "121330.370000",
        "121331.367000",
        "121332.354000",
        "121333.396000",
        "121334.371000",
        "121335.367000",
        "121336.354000",
        "121337.385000",
        "121338.382000",
        "121339.370000",
        "121340.387000",
        "121341.392000",
        "121342.389000",
        "121343.373000",
        "121344.357000",
        "121345.320000",
        "121346.377000",
        "121347.349000",
        "121348.373000",
        "121349.389000",
        "121350.365000",
        "121351.373000",
        "121352.372000",
        "121353.373000",
        "121354.379000",
        "121355.380000",
        "121356.349000",
        "121357.368000",
        "121358.405000",
        "121359.344000",
        "121400.372000",
        "121401.376000",
        "121402.386000",
        "121403.362000",
        "121404.387000",
        "121405.403000",
        "121406.368000",
        "121407.374000",
        "121408.363000",
        "121409.383000",
        "121410.399000",
        "121411.369000",
        "121412.382000",
        "121413.408000",
        "121414.355000",
        "121415.378000",
        "121416.374000",
        "121417.381000",
        "121418.366000",
        "121419.380000",
        "121420.368000",
        "121421.368000",
        "121422.400000",
        "121423.400000",
        "121424.355000",
        "121425.371000",
        "121426.392000",
        "121427.364000",
        "121428.374000",
        "121429.415000",
        "121430.376000",
        "121431.371000",
        "121432.380000",
        "121433.371000",
        "121434.371000",
        "121435.402000",
        "121436.384000",
        "121437.377000",
        "121438.402000",
        "121439.358000",
        "121440.376000",
        "121441.361000",
        "121442.378000",
        "121443.402000",
        "121444.362000",
        "121445.365000",
        "121446.374000",
        "121447.342000",
        "121448.375000",
        "121449.353000",
        "121450.383000",
        "121451.382000",
        "121452.380000",
        "121453.373000",
        "121454.373000",
        "121455.377000",
        "121456.394000",
        "121457.411000",
        "121458.385000",
        "121459.409000",
        "121500.399000",
        "121501.382000",
        "121502.386000",
        "121503.377000",
        "121504.373000",
        "121505.368000",
        "121506.387000",
        "121507.352000",
        "121508.378000",
        "121509.358000",
        "121510.407000"
      ],
      "InstanceNumber": [
        1,
        2,
        3,
        4,
        5,
        6,
        7,
        8,
        9,
        10,
        11,
        12,
        13,
        14,
        15,
        16,
        17,
        18,
        19,
        20,
        21,
        22,
        23,
        24,
        25,
        26,
        27,
        28,
        29,
        30,
        31,
        32,
        33,
        34,
        35,
        36,
        37,
        38,
        39,
        40,
        41,
        42,
        43,
        44,
        45,
        46,
        47,
        48,
        49,
        50,
        51,
        52,
        53,
        54,
        55,
        56,
        57,
        58,
        59,
        60,
        61,
        62,
        63,
        64,
        65,
        66,
        67,
        68,
        69,
        70,
        71,
        72,
        73,
        74,
        75,
        76,
        77,
        78,
        79,
        80,
        81,
        82,
        83,
        84,
        85,
        86,
        87,
        88,
        89,
        90,
        91,
        92,
        93,
        94,
        95,
        96,
        97,
        98,
        99,
        100,
        101,
        102,
        103,
        104,
        105,
        106,
        107,
        108,
        109,
        110,
        111,
        112,
        113,
        114,
        115,
        116,
        117,
        118,
        119,
        120,
        121,
        122,
        123,
        124,
        125,
        126,
        127,
        128,
        129,
        130,
        131,
        132,
        133,
        134,
        135,
        136,
        137,
        138,
        139,
        140,
        141,
        142,
        143,
        144,
        145,
        146,
        147,
        148,
        149,
        150,
        151,
        152,
        153,
        154,
        155,
        156,
        157,
        158,
        159,
        160,
        161,
        162,
        163,
        164,
        165,
        166,
        167,
        168,
        169,
        170,
        171,
        172,
        173,
        174,
        175,
        176,
        177,
        178,
        179,
        180,
        181,
        182,
        183,
        184,
        185,
        186,
        187,
        188,
        189,
        190,
        191,
        192,
        193,
        194,
        195,
        196,
