{
  "AcquisitionMatrixPE": 96,
  "AcquisitionNumber": 1,
  "BandwidthPerPixelPhaseEncode": 18.939,
  "BaseResolution": 96,
  "BodyPartExamined": "BRAIN",
  "ConsistencyInfo": "N4_VE11C_LATEST_20160120",
  "ConversionSoftware": "dcm2niix",
  "ConversionSoftwareVersion": "v1.0.20170923 (OpenJPEG build) GCC6.3.0",
  "DerivedVendorReportedEchoSpacing": 0.000550011,
  "DeviceSerialNumber": "66112",
  "DwellTime": 2.2e-06,
  "EchoTime": 0.033,
  "EchoTrainLength": 96,
  "EffectiveEchoSpacing": 0.000550011,
  "FlipAngle": 59,
  "ImageType": [
    "ORIGINAL",
    "PRIMARY",
    "FMRI",
    "NONE",
    "ND",
    "NORM",
    "MOSAIC"
  ],
  "InstitutionAddress": "Maynard_3_Hanover_NH_US_03755",
  "InstitutionName": "Dartmouth_College_-_PBS",
  "MagneticFieldStrength": 3,
  "Manufacturer": "Siemens",
  "ManufacturersModelName": "Prisma",
  "Modality": "MR",
  "MultibandAccelerationFactor": 4,
  "PartialFourier": 1,
  "PercentPhaseFOV": 100,
  "PhaseEncodingDirection": "j-",
  "PhaseEncodingSteps": 96,
  "PhaseResolution": 1,
  "ProcedureStepDescription": "Gobbini_Matteo_1038_hyperface",
  "ProtocolName": "func_run-04_task-visualmemory",
  "PulseSequenceDetails": "%SiemensSeq%_ep2d_bold",
  "ReceiveCoilActiveElements": "HEA;HEP",
  "ReceiveCoilName": "Head_32",
  "ReconMatrixPE": 96,
  "RepetitionTime": 1,
  "ScanOptions": "FS",
  "ScanningSequence": "EP",
  "SequenceName": "_epfid2d1_96",
  "SequenceVariant": "SK",
  "SeriesDescription": "func_run-04_task-visualmemory",
  "SliceTiming": [
    0.735,
    0,
    0.49,
    0.0825,
    0.5725,
    0.165,
    0.655,
    0.3275,
    0.8175,
    0.41,
    0.9,
    0.245,
    0.735,
    0,
    0.49,
    0.0825,
    0.5725,
    0.165,
    0.655,
    0.3275,
    0.8175,
    0.41,
    0.9,
    0.245,
    0.735,
    0,
    0.49,
    0.0825,
    0.5725,
    0.165,
    0.655,
    0.3275,
    0.8175,
    0.41,
    0.9,
    0.245,
    0.735,
    0,
    0.49,
    0.0825,
    0.5725,
    0.165,
    0.655,
    0.3275,
    0.8175,
    0.41,
    0.9,
    0.245
  ],
  "SoftwareVersions": "syngo_MR_E11",
  "StationName": "AWP66112",
  "TotalReadoutTime": 0.0522511,
  "time": {
    "samples": {
      "AcquisitionNumber": [
        1,
        2,
        3,
        4,
        5,
        6,
        7,
        8,
        9,
        10,
        11,
        12,
        13,
        14,
        15,
        16,
        17,
        18,
        19,
        20,
        21,
        22,
        23,
        24,
        25,
        26,
        27,
        28,
        29,
        30,
        31,
        32,
        33,
        34,
        35,
        36,
        37,
        38,
        39,
        40,
        41,
        42,
        43,
        44,
        45,
        46,
        47,
        48,
        49,
        50,
        51,
        52,
        53,
        54,
        55,
        56,
        57,
        58,
        59,
        60,
        61,
        62,
        63,
        64,
        65,
        66,
        67,
        68,
        69,
        70,
        71,
        72,
        73,
        74,
        75,
        76,
        77,
        78,
        79,
        80,
        81,
        82,
        83,
        84,
        85,
        86,
        87,
        88,
        89,
        90,
        91,
        92,
        93,
        94,
        95,
        96,
        97,
        98,
        99,
        100,
        101,
        102,
        103,
        104,
        105,
        106,
        107,
        108,
        109,
        110,
        111,
        112,
        113,
        114,
        115,
        116,
        117,
        118,
        119,
        120,
        121,
        122,
        123,
        124,
        125,
        126,
        127,
        128,
        129,
        130,
        131,
        132,
        133,
        134,
        135,
        136,
        137,
        138,
        139,
        140,
        141,
        142,
        143,
        144,
        145,
        146,
        147,
        148,
        149,
        150,
        151,
        152,
        153,
        154,
        155,
        156,
        157,
        158,
        159,
        160,
        161,
        162,
        163,
        164,
        165,
        166,
        167,
        168,
        169,
        170,
        171,
        172,
        173,
        174,
        175,
        176,
        177,
        178,
        179,
        180,
        181,
        182,
        183,
        184,
        185,
        186,
        187,
        188,
        189,
        190,
        191,
        192,
        193,
        194,
        195,
        196,
        197,
        198,
        199,
        200,
        201,
        202,
        203,
        204,
        205,
        206,
        207,
        208,
        209,
        210,
        211,
        212,
        213,
        214,
        215,
        216,
        217,
        218,
        219,
        220,
        221,
        222,
        223,
        224,
        225,
        226,
        227,
        228,
        229,
        230,
        231,
        232,
        233,
        234,
        235,
        236,
        237,
        238,
        239,
        240,
        241,
        242,
        243,
        244,
        245,
        246,
        247,
        248,
        249,
        250,
        251,
        252,
        253,
        254,
        255,
        256,
        257,
        258,
        259,
        260,
        261,
        262,
        263,
        264,
        265,
        266,
        267,
        268,
        269,
        270,
        271,
        272,
        273,
        274,
        275,
        276,
        277,
        278,
        279,
        280,
        281,
        282,
        283,
        284,
        285,
        286,
        287,
        288
      ],
      "AcquisitionTime": [
        "120012.707500",
        "120013.707500",
        "120014.707500",
        "120015.707500",
        "120016.707500",
        "120017.707500",
        "120018.707500",
        "120019.707500",
        "120020.707500",
        "120021.707500",
        "120022.707500",
        "120023.707500",
        "120024.707500",
        "120025.707500",
        "120026.707500",
        "120027.707500",
        "120028.707500",
        "120029.707500",
        "120030.707500",
        "120031.707500",
        "120032.707500",
        "120033.707500",
        "120034.707500",
        "120035.707500",
        "120036.707500",
        "120037.707500",
        "120038.707500",
        "120039.707500",
        "120040.707500",
        "120041.707500",
        "120042.707500",
        "120043.707500",
        "120044.707500",
        "120045.707500",
        "120046.707500",
        "120047.707500",
        "120048.707500",
        "120049.707500",
        "120050.707500",
        "120051.707500",
        "120052.707500",
        "120053.707500",
        "120054.707500",
        "120055.707500",
        "120056.707500",
        "120057.707500",
        "120058.707500",
        "120059.707500",
        "120100.707500",
        "120101.707500",
        "120102.707500",
        "120103.707500",
        "120104.707500",
        "120105.707500",
        "120106.707500",
        "120107.707500",
        "120108.707500",
        "120109.707500",
        "120110.707500",
        "120111.707500",
        "120112.707500",
        "120113.707500",
        "120114.707500",
        "120115.707500",
        "120116.707500",
        "120117.707500",
        "120118.707500",
        "120119.707500",
        "120120.707500",
        "120121.707500",
        "120122.707500",
        "120123.707500",
        "120124.707500",
        "120125.707500",
        "120126.707500",
        "120127.707500",
        "120128.707500",
        "120129.707500",
        "120130.707500",
        "120131.707500",
        "120132.707500",
        "120133.707500",
        "120134.707500",
        "120135.707500",
        "120136.707500",
        "120137.707500",
        "120138.707500",
        "120139.707500",
        "120140.707500",
        "120141.707500",
        "120142.707500",
        "120143.707500",
        "120144.707500",
        "120145.707500",
        "120146.707500",
        "120147.707500",
        "120148.707500",
        "120149.707500",
        "120150.707500",
        "120151.707500",
        "120152.707500",
        "120153.707500",
        "120154.707500",
        "120155.707500",
        "120156.707500",
        "120157.707500",
        "120158.707500",
        "120159.707500",
        "120200.707500",
        "120201.707500",
        "120202.707500",
        "120203.707500",
        "120204.707500",
        "120205.707500",
        "120206.707500",
        "120207.707500",
        "120208.707500",
        "120209.707500",
        "120210.707500",
        "120211.707500",
        "120212.707500",
        "120213.707500",
        "120214.707500",
        "120215.707500",
        "120216.707500",
        "120217.707500",
        "120218.707500",
        "120219.707500",
        "120220.707500",
        "120221.707500",
        "120222.707500",
        "120223.707500",
        "120224.707500",
        "120225.707500",
        "120226.707500",
        "120227.707500",
        "120228.707500",
        "120229.707500",
        "120230.707500",
        "120231.707500",
        "120232.707500",
        "120233.707500",
        "120234.707500",
        "120235.707500",
        "120236.707500",
        "120237.707500",
        "120238.707500",
        "120239.707500",
        "120240.707500",
        "120241.707500",
        "120242.707500",
        "120243.707500",
        "120244.707500",
        "120245.707500",
        "120246.707500",
        "120247.707500",
        "120248.707500",
        "120249.707500",
        "120250.707500",
        "120251.707500",
        "120252.707500",
        "120253.707500",
        "120254.707500",
        "120255.707500",
        "120256.707500",
        "120257.707500",
        "120258.707500",
        "120259.707500",
        "120300.707500",
        "120301.707500",
        "120302.707500",
        "120303.707500",
        "120304.707500",
        "120305.707500",
        "120306.707500",
        "120307.707500",
        "120308.707500",
        "120309.707500",
        "120310.707500",
        "120311.707500",
        "120312.707500",
        "120313.707500",
        "120314.707500",
        "120315.707500",
        "120316.707500",
        "120317.707500",
        "120318.707500",
        "120319.707500",
        "120320.707500",
        "120321.707500",
        "120322.707500",
        "120323.707500",
        "120324.707500",
        "120325.707500",
        "120326.707500",
        "120327.707500",
        "120328.707500",
        "120329.707500",
        "120330.707500",
        "120331.707500",
        "120332.707500",
        "120333.707500",
        "120334.707500",
        "120335.707500",
        "120336.707500",
        "120337.707500",
        "120338.707500",
        "120339.707500",
        "120340.707500",
        "120341.707500",
        "120342.707500",
        "120343.707500",
        "120344.707500",
        "120345.707500",
        "120346.707500",
        "120347.707500",
        "120348.707500",
        "120349.707500",
        "120350.707500",
        "120351.707500",
        "120352.707500",
        "120353.707500",
        "120354.707500",
        "120355.707500",
        "120356.707500",
        "120357.707500",
        "120358.707500",
        "120359.707500",
        "120400.707500",
        "120401.707500",
        "120402.707500",
        "120403.707500",
        "120404.707500",
        "120405.707500",
        "120406.707500",
        "120407.707500",
        "120408.707500",
        "120409.707500",
        "120410.707500",
        "120411.707500",
        "120412.707500",
        "120413.707500",
        "120414.707500",
        "120415.707500",
        "120416.707500",
        "120417.707500",
        "120418.707500",
        "120419.707500",
        "120420.707500",
        "120421.707500",
        "120422.707500",
        "120423.707500",
        "120424.707500",
        "120425.707500",
        "120426.707500",
        "120427.707500",
        "120428.707500",
        "120429.707500",
        "120430.707500",
        "120431.707500",
        "120432.707500",
        "120433.707500",
        "120434.707500",
        "120435.707500",
        "120436.707500",
        "120437.707500",
        "120438.707500",
        "120439.707500",
        "120440.707500",
        "120441.707500",
        "120442.707500",
        "120443.707500",
        "120444.707500",
        "120445.707500",
        "120446.707500",
        "120447.707500",
        "120448.707500",
        "120449.707500",
        "120450.707500",
        "120451.707500",
        "120452.707500",
        "120453.707500",
        "120454.707500",
        "120455.707500",
        "120456.707500",
        "120457.707500",
        "120458.707500",
        "120459.707500"
      ],
      "ContentTime": [
        "120014.438000",
        "120015.297000",
        "120016.313000",
        "120017.299000",
        "120018.314000",
        "120019.325000",
        "120020.298000",
        "120021.349000",
        "120022.270000",
        "120023.271000",
        "120024.263000",
        "120025.330000",
        "120026.284000",
        "120027.289000",
        "120028.274000",
        "120029.285000",
        "120030.276000",
        "120031.303000",
        "120032.264000",
        "120033.280000",
        "120034.276000",
        "120035.277000",
        "120036.316000",
        "120037.276000",
        "120038.293000",
        "120039.307000",
        "120040.324000",
        "120041.277000",
        "120042.311000",
        "120043.327000",
        "120044.311000",
        "120045.286000",
        "120046.298000",
        "120047.343000",
        "120048.335000",
        "120049.270000",
        "120050.307000",
        "120051.291000",
        "120052.294000",
        "120053.308000",
        "120054.289000",
        "120055.308000",
        "120056.271000",
        "120057.306000",
        "120058.254000",
        "120059.296000",
        "120100.295000",
        "120101.303000",
        "120102.324000",
        "120103.323000",
        "120104.288000",
        "120105.301000",
        "120106.292000",
        "120107.278000",
        "120108.290000",
        "120109.285000",
        "120110.294000",
        "120111.288000",
        "120112.267000",
        "120113.268000",
        "120114.300000",
        "120115.320000",
        "120116.267000",
        "120117.271000",
        "120118.276000",
        "120119.325000",
        "120120.302000",
        "120121.270000",
        "120122.310000",
        "120123.261000",
        "120124.326000",
        "120125.309000",
        "120126.283000",
        "120127.293000",
        "120128.271000",
        "120129.323000",
        "120130.309000",
        "120131.293000",
        "120132.302000",
        "120133.308000",
        "120134.284000",
        "120135.291000",
        "120136.306000",
        "120137.317000",
        "120138.309000",
        "120139.276000",
        "120140.288000",
        "120141.300000",
        "120142.309000",
        "120143.302000",
        "120144.267000",
        "120145.288000",
        "120146.259000",
        "120147.323000",
        "120148.274000",
        "120149.306000",
        "120150.260000",
        "120151.258000",
        "120152.364000",
        "120153.281000",
        "120154.315000",
        "120155.308000",
        "120156.287000",
        "120157.279000",
        "120158.298000",
        "120159.290000",
        "120200.290000",
        "120202.035000",
        "120202.980000",
        "120203.314000",
        "120204.315000",
        "120205.289000",
        "120206.312000",
        "120207.281000",
        "120208.295000",
        "120209.325000",
        "120210.313000",
        "120211.287000",
        "120212.312000",
        "120213.318000",
        "120214.317000",
        "120215.289000",
        "120216.254000",
        "120217.287000",
        "120218.287000",
        "120219.323000",
        "120220.316000",
        "120221.282000",
        "120222.307000",
        "120223.285000",
        "120224.276000",
        "120225.307000",
        "120226.295000",
        "120227.253000",
        "120228.292000",
        "120229.311000",
        "120230.279000",
        "120231.283000",
        "120232.285000",
        "120233.292000",
        "120234.281000",
        "120235.321000",
        "120236.300000",
        "120237.287000",
        "120238.312000",
        "120239.265000",
        "120240.315000",
        "120241.316000",
        "120242.276000",
        "120243.284000",
        "120244.302000",
        "120245.281000",
        "120246.266000",
        "120247.282000",
        "120248.269000",
        "120249.285000",
        "120250.323000",
        "120251.322000",
        "120252.299000",
        "120253.277000",
        "120254.298000",
        "120255.269000",
        "120256.291000",
        "120257.320000",
        "120258.284000",
        "120259.276000",
        "120300.299000",
        "120301.303000",
        "120302.288000",
        "120303.286000",
        "120304.290000",
        "120305.287000",
        "120306.288000",
        "120307.295000",
        "120308.270000",
        "120309.288000",
        "120310.294000",
        "120311.300000",
        "120312.281000",
        "120313.294000",
        "120314.318000",
        "120315.305000",
        "120316.274000",
        "120317.297000",
        "120318.278000",
        "120319.303000",
        "120320.293000",
        "120321.269000",
        "120322.268000",
        "120323.294000",
        "120324.305000",
        "120325.287000",
        "120326.278000",
        "120327.336000",
        "120328.285000",
        "120329.281000",
        "120330.282000",
        "120331.284000",
        "120332.308000",
        "120333.296000",
        "120334.273000",
        "120335.281000",
        "120336.303000",
        "120337.294000",
        "120338.254000",
        "120339.261000",
        "120340.274000",
        "120341.256000",
        "120342.292000",
        "120343.294000",
        "120344.272000",
        "120345.295000",
        "120346.301000",
        "120347.328000",
        "120348.298000",
        "120349.292000",
        "120350.293000",
        "120351.275000",
        "120352.303000",
        "120353.284000",
        "120354.296000",
        "120355.302000",
        "120356.258000",
        "120357.295000",
        "120358.288000",
        "120359.264000",
        "120400.281000",
        "120401.269000",
        "120402.262000",
        "120403.279000",
        "120404.266000",
        "120405.316000",
        "120406.275000",
        "120407.293000",
        "120408.295000",
        "120409.277000",
        "120410.315000",
        "120411.268000",
        "120412.298000",
        "120413.279000",
        "120414.268000",
        "120415.291000",
        "120416.272000",
        "120417.294000",
        "120418.280000",
        "120419.296000",
        "120420.291000",
        "120421.304000",
        "120422.263000",
        "120423.298000",
        "120424.273000",
        "120425.270000",
        "120426.326000",
        "120427.306000",
        "120428.293000",
        "120429.284000",
        "120430.294000",
        "120431.263000",
        "120432.268000",
        "120433.301000",
        "120434.295000",
        "120435.280000",
        "120436.269000",
        "120437.347000",
        "120438.252000",
        "120439.298000",
        "120440.272000",
        "120441.292000",
        "120442.268000",
        "120443.305000",
        "120444.301000",
        "120445.303000",
        "120446.284000",
        "120447.281000",
        "120448.285000",
        "120449.311000",
        "120450.259000",
        "120451.297000",
        "120452.299000",
        "120453.285000",
        "120454.301000",
        "120455.305000",
        "120456.276000",
        "120457.292000",
        "120458.276000",
        "120459.296000",
        "120500.323000",
        "120501.318000"
      ],
      "InstanceCreationTime": [
        "120014.438000",
        "120015.297000",
        "120016.313000",
        "120017.299000",
        "120018.314000",
        "120019.325000",
        "120020.298000",
        "120021.349000",
        "120022.270000",
        "120023.271000",
        "120024.263000",
        "120025.330000",
        "120026.284000",
        "120027.289000",
        "120028.274000",
        "120029.285000",
        "120030.276000",
        "120031.303000",
        "120032.264000",
        "120033.280000",
        "120034.276000",
        "120035.277000",
        "120036.316000",
        "120037.276000",
        "120038.293000",
        "120039.307000",
        "120040.324000",
        "120041.277000",
        "120042.311000",
        "120043.327000",
        "120044.311000",
        "120045.286000",
        "120046.298000",
        "120047.343000",
        "120048.335000",
        "120049.270000",
        "120050.307000",
        "120051.291000",
        "120052.294000",
        "120053.308000",
        "120054.289000",
        "120055.308000",
        "120056.271000",
        "120057.306000",
        "120058.254000",
        "120059.296000",
        "120100.295000",
        "120101.303000",
        "120102.324000",
        "120103.323000",
        "120104.288000",
        "120105.301000",
        "120106.292000",
        "120107.278000",
        "120108.290000",
        "120109.285000",
        "120110.294000",
        "120111.288000",
        "120112.267000",
        "120113.268000",
        "120114.300000",
        "120115.320000",
        "120116.267000",
        "120117.271000",
        "120118.276000",
        "120119.325000",
        "120120.302000",
        "120121.270000",
        "120122.310000",
        "120123.261000",
        "120124.326000",
        "120125.309000",
        "120126.283000",
        "120127.293000",
        "120128.271000",
        "120129.323000",
        "120130.309000",
        "120131.293000",
        "120132.302000",
        "120133.308000",
        "120134.284000",
        "120135.291000",
        "120136.306000",
        "120137.317000",
        "120138.309000",
        "120139.276000",
        "120140.288000",
        "120141.300000",
        "120142.309000",
        "120143.302000",
        "120144.267000",
        "120145.288000",
        "120146.259000",
        "120147.323000",
        "120148.274000",
        "120149.306000",
        "120150.260000",
        "120151.258000",
        "120152.364000",
        "120153.281000",
        "120154.315000",
        "120155.308000",
        "120156.287000",
        "120157.279000",
        "120158.298000",
        "120159.290000",
        "120200.290000",
        "120202.035000",
        "120202.980000",
        "120203.314000",
        "120204.315000",
        "120205.289000",
        "120206.312000",
        "120207.281000",
        "120208.295000",
        "120209.325000",
        "120210.313000",
        "120211.287000",
        "120212.312000",
        "120213.318000",
        "120214.317000",
        "120215.289000",
        "120216.254000",
        "120217.287000",
        "120218.287000",
        "120219.323000",
        "120220.316000",
        "120221.282000",
        "120222.307000",
        "120223.285000",
        "120224.276000",
        "120225.307000",
        "120226.295000",
        "120227.253000",
        "120228.292000",
        "120229.311000",
        "120230.279000",
        "120231.283000",
        "120232.285000",
        "120233.292000",
        "120234.281000",
        "120235.321000",
        "120236.300000",
        "120237.287000",
        "120238.312000",
        "120239.265000",
        "120240.315000",
        "120241.316000",
        "120242.276000",
        "120243.284000",
        "120244.302000",
        "120245.281000",
        "120246.266000",
        "120247.282000",
        "120248.269000",
        "120249.285000",
        "120250.323000",
        "120251.322000",
        "120252.299000",
        "120253.277000",
        "120254.298000",
        "120255.269000",
        "120256.291000",
        "120257.320000",
        "120258.284000",
        "120259.276000",
        "120300.299000",
        "120301.303000",
        "120302.288000",
        "120303.286000",
        "120304.290000",
        "120305.287000",
        "120306.288000",
        "120307.295000",
        "120308.270000",
        "120309.288000",
        "120310.294000",
        "120311.300000",
        "120312.281000",
        "120313.294000",
        "120314.318000",
        "120315.305000",
        "120316.274000",
        "120317.297000",
        "120318.278000",
        "120319.303000",
        "120320.293000",
        "120321.269000",
        "120322.268000",
        "120323.294000",
        "120324.305000",
        "120325.287000",
        "120326.278000",
        "120327.336000",
        "120328.285000",
        "120329.281000",
        "120330.282000",
        "120331.284000",
        "120332.308000",
        "120333.296000",
        "120334.273000",
        "120335.281000",
        "120336.303000",
        "120337.294000",
        "120338.254000",
        "120339.261000",
        "120340.274000",
        "120341.256000",
        "120342.292000",
        "120343.294000",
        "120344.272000",
        "120345.295000",
        "120346.301000",
        "120347.328000",
        "120348.298000",
        "120349.292000",
        "120350.293000",
        "120351.275000",
        "120352.303000",
        "120353.284000",
        "120354.296000",
        "120355.302000",
        "120356.258000",
        "120357.295000",
        "120358.288000",
        "120359.264000",
        "120400.281000",
        "120401.269000",
        "120402.262000",
        "120403.279000",
        "120404.266000",
        "120405.316000",
        "120406.275000",
        "120407.293000",
        "120408.295000",
        "120409.277000",
        "120410.315000",
        "120411.268000",
        "120412.298000",
        "120413.279000",
        "120414.268000",
        "120415.291000",
        "120416.272000",
        "120417.294000",
        "120418.280000",
        "120419.296000",
        "120420.291000",
        "120421.304000",
        "120422.263000",
        "120423.298000",
        "120424.273000",
        "120425.270000",
        "120426.326000",
        "120427.306000",
        "120428.293000",
        "120429.284000",
        "120430.294000",
        "120431.263000",
        "120432.268000",
        "120433.301000",
        "120434.295000",
        "120435.280000",
        "120436.269000",
        "120437.347000",
        "120438.252000",
        "120439.298000",
        "120440.272000",
        "120441.292000",
        "120442.268000",
        "120443.305000",
        "120444.301000",
        "120445.303000",
        "120446.284000",
        "120447.281000",
        "120448.285000",
        "120449.311000",
        "120450.259000",
        "120451.297000",
        "120452.299000",
        "120453.285000",
        "120454.301000",
        "120455.305000",
        "120456.276000",
        "120457.292000",
        "120458.276000",
        "120459.296000",
        "120500.323000",
        "120501.318000"
      ],
      "InstanceNumber": [
        1,
        2,
        3,
        4,
        5,
        6,
        7,
        8,
        9,
        10,
        11,
        12,
        13,
        14,
        15,
        16,
        17,
        18,
        19,
        20,
        21,
        22,
        23,
        24,
        25,
        26,
        27,
        28,
        29,
        30,
        31,
        32,
        33,
        34,
        35,
        36,
        37,
        38,
        39,
        40,
        41,
        42,
        43,
        44,
        45,
        46,
        47,
        48,
        49,
        50,
        51,
        52,
        53,
        54,
        55,
        56,
        57,
        58,
        59,
        60,
        61,
        62,
        63,
        64,
        65,
        66,
        67,
        68,
        69,
        70,
        71,
        72,
        73,
        74,
        75,
        76,
        77,
        78,
        79,
        80,
        81,
        82,
        83,
        84,
        85,
        86,
        87,
        88,
        89,
        90,
        91,
        92,
        93,
        94,
        95,
        96,
        97,
        98,
        99,
        100,
        101,
        102,
        103,
        104,
        105,
        106,
        107,
        108,
        109,
        110,
        111,
        112,
        113,
        114,
        115,
        116,
        117,
        118,
        119,
        120,
        121,
        122,
        123,
        124,
        125,
        126,
        127,
        128,
        129,
        130,
        131,
        132,
        133,
        134,
        135,
        136,
        137,
        138,
        139,
        140,
        141,
        142,
        143,
        144,
        145,
        146,
        147,
        148,
        149,
        150,
        151,
        152,
        153,
        154,
        155,
        156,
        157,
        158,
        159,
        160,
        161,
        162,
        163,
        164,
        165,
        166,
        167,
        168,
        169,
        170,
        171,
        172,
        173,
        174,
        175,
        176,
        177,
        178,
        179,
        180,
        181,
        182,
        183,
        184,
        185,
        186,
        187,
        188,
        189,
        190,
        191,
        192,
        193,
        194,
        195,
        196,
