{
  "AcquisitionMatrixPE": 96,
  "AcquisitionNumber": 1,
  "BandwidthPerPixelPhaseEncode": 18.939,
  "BaseResolution": 96,
  "BodyPartExamined": "BRAIN",
  "ConsistencyInfo": "N4_VE11C_LATEST_20160120",
  "ConversionSoftware": "dcm2niix",
  "ConversionSoftwareVersion": "v1.0.20170923 (OpenJPEG build) GCC6.3.0",
  "DerivedVendorReportedEchoSpacing": 0.000550011,
  "DeviceSerialNumber": "66112",
  "DwellTime": 2.2e-06,
  "EchoTime": 0.033,
  "EchoTrainLength": 96,
  "EffectiveEchoSpacing": 0.000550011,
  "FlipAngle": 59,
  "ImageType": [
    "ORIGINAL",
    "PRIMARY",
    "FMRI",
    "NONE",
    "ND",
    "NORM",
    "MOSAIC"
  ],
  "InstitutionAddress": "Maynard_3_Hanover_NH_US_03755",
  "InstitutionName": "Dartmouth_College_-_PBS",
  "MagneticFieldStrength": 3,
  "Manufacturer": "Siemens",
  "ManufacturersModelName": "Prisma",
  "Modality": "MR",
  "MultibandAccelerationFactor": 4,
  "PercentPhaseFOV": 100,
  "PhaseEncodingDirection": "j-",
  "PhaseEncodingSteps": 96,
  "PhaseResolution": 1,
  "ProcedureStepDescription": "Gobbini_Matteo_1038_hyperface",
  "ProtocolName": "func_run-05_task-localizer",
  "PulseSequenceDetails": "%SiemensSeq%_ep2d_bold",
  "ReceiveCoilActiveElements": "HEA;HEP",
  "ReceiveCoilName": "Head_32",
  "ReconMatrixPE": 96,
  "RepetitionTime": 1,
  "ScanOptions": "FS",
  "ScanningSequence": "EP",
  "SequenceName": "_epfid2d1_96",
  "SequenceVariant": "SK",
  "SeriesDescription": "func_run-05_task-localizer",
  "SliceTiming": [
    0.735,
    0,
    0.49,
    0.0825,
    0.5725,
    0.1625,
    0.6525,
    0.3275,
    0.8175,
    0.4075,
    0.8975,
    0.245,
    0.735,
    0,
    0.49,
    0.0825,
    0.5725,
    0.1625,
    0.6525,
    0.3275,
    0.8175,
    0.4075,
    0.8975,
    0.245,
    0.735,
    0,
    0.49,
    0.0825,
    0.5725,
    0.1625,
    0.6525,
    0.3275,
    0.8175,
    0.4075,
    0.8975,
    0.245,
    0.735,
    0,
    0.49,
    0.0825,
    0.5725,
    0.1625,
    0.6525,
    0.3275,
    0.8175,
    0.4075,
    0.8975,
    0.245
  ],
  "SoftwareVersions": "syngo_MR_E11",
  "StationName": "AWP66112",
  "TotalReadoutTime": 0.0522511,
  "time": {
    "samples": {
      "AcquisitionNumber": [
        1,
        2,
        3,
        4,
        5,
        6,
        7,
        8,
        9,
        10,
        11,
        12,
        13,
        14,
        15,
        16,
        17,
        18,
        19,
        20,
        21,
        22,
        23,
        24,
        25,
        26,
        27,
        28,
        29,
        30,
        31,
        32,
        33,
        34,
        35,
        36,
        37,
        38,
        39,
        40,
        41,
        42,
        43,
        44,
        45,
        46,
        47,
        48,
        49,
        50,
        51,
        52,
        53,
        54,
        55,
        56,
        57,
        58,
        59,
        60,
        61,
        62,
        63,
        64,
        65,
        66,
        67,
        68,
        69,
        70,
        71,
        72,
        73,
        74,
        75,
        76,
        77,
        78,
        79,
        80,
        81,
        82,
        83,
        84,
        85,
        86,
        87,
        88,
        89,
        90,
        91,
        92,
        93,
        94,
        95,
        96,
        97,
        98,
        99,
        100,
        101,
        102,
        103,
        104,
        105,
        106,
        107,
        108,
        109,
        110,
        111,
        112,
        113,
        114,
        115,
        116,
        117,
        118,
        119,
        120,
        121,
        122,
        123,
        124,
        125,
        126,
        127,
        128,
        129,
        130,
        131,
        132,
        133,
        134,
        135,
        136,
        137,
        138,
        139,
        140,
        141,
        142,
        143,
        144,
        145,
        146,
        147,
        148,
        149,
        150,
        151,
        152,
        153,
        154,
        155,
        156,
        157,
        158,
        159,
        160,
        161,
        162,
        163,
        164,
        165,
        166,
        167,
        168,
        169,
        170,
        171,
        172,
        173,
        174,
        175,
        176,
        177,
        178,
        179,
        180,
        181,
        182,
        183,
        184,
        185,
        186,
        187,
        188,
        189,
        190,
        191,
        192,
        193,
        194,
        195,
        196,
        197,
        198,
        199,
        200,
        201,
        202,
        203,
        204,
        205,
        206,
        207,
        208,
        209,
        210,
        211,
        212,
        213,
        214,
        215,
        216,
        217,
        218,
        219,
        220,
        221,
        222,
        223,
        224,
        225,
        226,
        227,
        228,
        229,
        230,
        231,
        232,
        233,
        234,
        235,
        236
      ],
      "AcquisitionTime": [
        "120541.247500",
        "120542.247500",
        "120543.247500",
        "120544.247500",
        "120545.247500",
        "120546.247500",
        "120547.247500",
        "120548.247500",
        "120549.247500",
        "120550.247500",
        "120551.247500",
        "120552.247500",
        "120553.247500",
        "120554.247500",
        "120555.247500",
        "120556.247500",
        "120557.247500",
        "120558.247500",
        "120559.247500",
        "120600.247500",
        "120601.247500",
        "120602.247500",
        "120603.247500",
        "120604.247500",
        "120605.247500",
        "120606.247500",
        "120607.247500",
        "120608.247500",
        "120609.247500",
        "120610.247500",
        "120611.247500",
        "120612.247500",
        "120613.247500",
        "120614.247500",
        "120615.247500",
        "120616.247500",
        "120617.247500",
        "120618.247500",
        "120619.247500",
        "120620.247500",
        "120621.247500",
        "120622.247500",
        "120623.247500",
        "120624.247500",
        "120625.247500",
        "120626.247500",
        "120627.247500",
        "120628.247500",
        "120629.247500",
        "120630.247500",
        "120631.247500",
        "120632.247500",
        "120633.247500",
        "120634.247500",
        "120635.247500",
        "120636.247500",
        "120637.247500",
        "120638.247500",
        "120639.247500",
        "120640.247500",
        "120641.247500",
        "120642.247500",
        "120643.247500",
        "120644.247500",
        "120645.247500",
        "120646.247500",
        "120647.247500",
        "120648.247500",
        "120649.247500",
        "120650.247500",
        "120651.247500",
        "120652.247500",
        "120653.247500",
        "120654.247500",
        "120655.247500",
        "120656.247500",
        "120657.247500",
        "120658.247500",
        "120659.247500",
        "120700.247500",
        "120701.247500",
        "120702.247500",
        "120703.247500",
        "120704.247500",
        "120705.247500",
        "120706.247500",
        "120707.247500",
        "120708.247500",
        "120709.247500",
        "120710.247500",
        "120711.247500",
        "120712.247500",
        "120713.247500",
        "120714.247500",
        "120715.247500",
        "120716.247500",
        "120717.247500",
        "120718.247500",
        "120719.247500",
        "120720.247500",
        "120721.247500",
        "120722.247500",
        "120723.247500",
        "120724.247500",
        "120725.247500",
        "120726.247500",
        "120727.247500",
        "120728.247500",
        "120729.247500",
        "120730.247500",
        "120731.247500",
        "120732.247500",
        "120733.247500",
        "120734.247500",
        "120735.247500",
        "120736.247500",
        "120737.247500",
        "120738.247500",
        "120739.247500",
        "120740.247500",
        "120741.247500",
        "120742.247500",
        "120743.247500",
        "120744.247500",
        "120745.247500",
        "120746.247500",
        "120747.247500",
        "120748.247500",
        "120749.247500",
        "120750.247500",
        "120751.247500",
        "120752.247500",
        "120753.247500",
        "120754.247500",
        "120755.247500",
        "120756.247500",
        "120757.247500",
        "120758.247500",
        "120759.247500",
        "120800.247500",
        "120801.247500",
        "120802.247500",
        "120803.247500",
        "120804.247500",
        "120805.247500",
        "120806.247500",
        "120807.247500",
        "120808.247500",
        "120809.247500",
        "120810.247500",
        "120811.247500",
        "120812.247500",
        "120813.247500",
        "120814.247500",
        "120815.247500",
        "120816.247500",
        "120817.247500",
        "120818.247500",
        "120819.247500",
        "120820.247500",
        "120821.247500",
        "120822.247500",
        "120823.247500",
        "120824.247500",
        "120825.247500",
        "120826.247500",
        "120827.247500",
        "120828.247500",
        "120829.247500",
        "120830.247500",
        "120831.247500",
        "120832.247500",
        "120833.247500",
        "120834.247500",
        "120835.247500",
        "120836.247500",
        "120837.247500",
        "120838.247500",
        "120839.247500",
        "120840.247500",
        "120841.247500",
        "120842.247500",
        "120843.247500",
        "120844.247500",
        "120845.247500",
        "120846.247500",
        "120847.247500",
        "120848.247500",
        "120849.247500",
        "120850.247500",
        "120851.247500",
        "120852.247500",
        "120853.247500",
        "120854.247500",
        "120855.247500",
        "120856.247500",
        "120857.247500",
        "120858.247500",
        "120859.247500",
        "120900.247500",
        "120901.247500",
        "120902.247500",
        "120903.247500",
        "120904.247500",
        "120905.247500",
        "120906.247500",
        "120907.247500",
        "120908.247500",
        "120909.247500",
        "120910.247500",
        "120911.247500",
        "120912.247500",
        "120913.247500",
        "120914.247500",
        "120915.247500",
        "120916.247500",
        "120917.247500",
        "120918.247500",
        "120919.247500",
        "120920.247500",
        "120921.247500",
        "120922.247500",
        "120923.247500",
        "120924.247500",
        "120925.247500",
        "120926.247500",
        "120927.247500",
        "120928.247500",
        "120929.247500",
        "120930.247500",
        "120931.247500",
        "120932.247500",
        "120933.247500",
        "120934.247500",
        "120935.247500",
        "120936.247500"
      ],
      "ContentTime": [
        "120542.484000",
        "120543.318000",
        "120544.297000",
        "120545.306000",
        "120546.322000",
        "120547.345000",
        "120548.390000",
        "120549.311000",
        "120550.311000",
        "120551.308000",
        "120552.315000",
        "120553.314000",
        "120554.293000",
        "120555.315000",
        "120556.315000",
        "120557.330000",
        "120558.309000",
        "120559.328000",
        "120600.318000",
        "120601.297000",
        "120602.332000",
        "120603.335000",
        "120604.321000",
        "120605.283000",
        "120606.336000",
        "120607.273000",
        "120608.313000",
        "120609.268000",
        "120610.259000",
        "120611.306000",
        "120612.315000",
        "120613.312000",
        "120614.298000",
        "120615.315000",
        "120616.320000",
        "120617.305000",
        "120618.327000",
        "120619.297000",
        "120620.324000",
        "120621.291000",
        "120622.289000",
        "120623.323000",
        "120624.305000",
        "120625.300000",
        "120626.283000",
        "120627.330000",
        "120628.314000",
        "120629.326000",
        "120630.301000",
        "120631.318000",
        "120632.325000",
        "120633.317000",
        "120634.318000",
        "120635.331000",
        "120636.314000",
        "120637.282000",
        "120638.322000",
        "120639.327000",
        "120640.312000",
        "120641.313000",
        "120642.311000",
        "120643.307000",
        "120644.293000",
        "120645.315000",
        "120646.326000",
        "120647.289000",
        "120648.303000",
        "120649.287000",
        "120650.328000",
        "120651.338000",
        "120652.308000",
        "120653.285000",
        "120654.331000",
        "120655.307000",
        "120656.376000",
        "120657.281000",
        "120658.320000",
        "120659.317000",
        "120700.340000",
        "120701.322000",
        "120702.334000",
        "120703.292000",
        "120704.330000",
        "120705.322000",
        "120706.278000",
        "120707.314000",
        "120708.283000",
        "120709.334000",
        "120710.321000",
        "120711.280000",
        "120712.406000",
        "120713.330000",
        "120714.317000",
        "120715.300000",
        "120716.297000",
        "120717.296000",
        "120718.295000",
        "120719.304000",
        "120720.293000",
        "120721.312000",
        "120722.326000",
        "120723.306000",
        "120724.315000",
        "120725.323000",
        "120726.313000",
        "120727.306000",
        "120728.360000",
        "120729.324000",
        "120730.307000",
        "120731.334000",
        "120732.305000",
        "120733.314000",
        "120734.306000",
        "120735.297000",
        "120736.305000",
        "120737.317000",
        "120738.323000",
        "120739.305000",
        "120740.360000",
        "120741.319000",
        "120742.316000",
        "120743.334000",
        "120744.327000",
        "120745.353000",
        "120746.312000",
        "120747.338000",
        "120748.349000",
        "120749.317000",
        "120750.334000",
        "120751.302000",
        "120752.285000",
        "120753.320000",
        "120754.308000",
        "120755.317000",
        "120756.309000",
        "120757.322000",
        "120758.294000",
        "120759.334000",
        "120800.294000",
        "120801.314000",
        "120802.310000",
        "120803.322000",
        "120804.337000",
        "120805.318000",
        "120806.304000",
        "120807.324000",
        "120808.289000",
        "120809.320000",
        "120810.359000",
        "120811.340000",
        "120812.291000",
        "120813.328000",
        "120814.345000",
        "120815.305000",
        "120816.312000",
        "120817.312000",
        "120818.307000",
        "120819.303000",
        "120820.305000",
        "120821.308000",
        "120822.302000",
        "120823.323000",
        "120824.312000",
        "120825.331000",
        "120826.330000",
        "120827.273000",
        "120828.314000",
        "120829.323000",
        "120830.287000",
        "120831.321000",
        "120832.300000",
        "120833.328000",
        "120834.329000",
        "120835.322000",
        "120836.328000",
        "120837.335000",
        "120838.314000",
        "120839.305000",
        "120840.310000",
        "120841.317000",
        "120842.310000",
        "120843.305000",
        "120844.309000",
        "120845.294000",
        "120846.304000",
        "120847.312000",
        "120848.348000",
        "120849.343000",
        "120850.295000",
        "120851.305000",
        "120852.317000",
        "120853.314000",
        "120854.326000",
        "120855.322000",
        "120856.320000",
        "120857.352000",
        "120858.303000",
        "120859.318000",
        "120900.321000",
        "120901.290000",
        "120902.339000",
        "120903.312000",
        "120904.293000",
        "120905.313000",
        "120906.307000",
        "120907.291000",
        "120908.306000",
        "120909.315000",
        "120910.292000",
        "120911.324000",
        "120912.317000",
        "120913.319000",
        "120914.311000",
        "120915.324000",
        "120916.332000",
        "120917.327000",
        "120918.321000",
        "120919.327000",
        "120920.333000",
        "120921.314000",
        "120922.337000",
        "120923.332000",
        "120924.313000",
        "120925.286000",
        "120926.312000",
        "120927.318000",
        "120928.330000",
        "120929.327000",
        "120930.320000",
        "120931.312000",
        "120932.330000",
        "120933.310000",
        "120934.327000",
        "120935.320000",
        "120936.295000",
        "120937.339000"
      ],
      "InstanceCreationTime": [
        "120542.484000",
        "120543.318000",
        "120544.297000",
        "120545.306000",
        "120546.322000",
        "120547.345000",
        "120548.390000",
        "120549.311000",
        "120550.311000",
        "120551.308000",
        "120552.315000",
        "120553.314000",
        "120554.293000",
        "120555.315000",
        "120556.315000",
        "120557.330000",
        "120558.309000",
        "120559.328000",
        "120600.318000",
        "120601.297000",
        "120602.332000",
        "120603.335000",
        "120604.321000",
        "120605.283000",
        "120606.336000",
        "120607.273000",
        "120608.313000",
        "120609.268000",
        "120610.259000",
        "120611.306000",
        "120612.315000",
        "120613.312000",
        "120614.298000",
        "120615.315000",
        "120616.320000",
        "120617.305000",
        "120618.327000",
        "120619.297000",
        "120620.324000",
        "120621.291000",
        "120622.289000",
        "120623.323000",
        "120624.305000",
        "120625.300000",
        "120626.283000",
        "120627.330000",
        "120628.314000",
        "120629.326000",
        "120630.301000",
        "120631.318000",
        "120632.325000",
        "120633.317000",
        "120634.318000",
        "120635.331000",
        "120636.314000",
        "120637.282000",
        "120638.322000",
        "120639.327000",
        "120640.312000",
        "120641.313000",
        "120642.311000",
        "120643.307000",
        "120644.293000",
        "120645.315000",
        "120646.326000",
        "120647.289000",
        "120648.303000",
        "120649.287000",
        "120650.328000",
        "120651.338000",
        "120652.308000",
        "120653.285000",
        "120654.331000",
        "120655.307000",
        "120656.376000",
        "120657.281000",
        "120658.320000",
        "120659.317000",
        "120700.340000",
        "120701.322000",
        "120702.334000",
        "120703.292000",
        "120704.330000",
        "120705.322000",
        "120706.278000",
        "120707.314000",
        "120708.283000",
        "120709.334000",
        "120710.321000",
        "120711.280000",
        "120712.406000",
        "120713.330000",
        "120714.317000",
        "120715.300000",
        "120716.297000",
        "120717.296000",
        "120718.295000",
        "120719.304000",
        "120720.293000",
        "120721.312000",
        "120722.326000",
        "120723.306000",
        "120724.315000",
        "120725.323000",
        "120726.313000",
        "120727.306000",
        "120728.360000",
        "120729.324000",
        "120730.307000",
        "120731.334000",
        "120732.305000",
        "120733.314000",
        "120734.306000",
        "120735.297000",
        "120736.305000",
        "120737.317000",
        "120738.323000",
        "120739.305000",
        "120740.360000",
        "120741.319000",
        "120742.316000",
        "120743.334000",
        "120744.327000",
        "120745.353000",
        "120746.312000",
        "120747.338000",
        "120748.349000",
        "120749.317000",
        "120750.334000",
        "120751.302000",
        "120752.285000",
        "120753.320000",
        "120754.308000",
        "120755.317000",
        "120756.309000",
        "120757.322000",
        "120758.294000",
        "120759.334000",
        "120800.294000",
        "120801.314000",
        "120802.310000",
        "120803.322000",
        "120804.337000",
        "120805.318000",
        "120806.304000",
        "120807.324000",
        "120808.289000",
        "120809.320000",
        "120810.359000",
        "120811.340000",
        "120812.291000",
        "120813.328000",
        "120814.345000",
        "120815.305000",
        "120816.312000",
        "120817.312000",
        "120818.307000",
        "120819.303000",
        "120820.305000",
        "120821.308000",
        "120822.302000",
        "120823.323000",
        "120824.312000",
        "120825.331000",
        "120826.330000",
        "120827.273000",
        "120828.314000",
        "120829.323000",
        "120830.287000",
        "120831.321000",
        "120832.300000",
        "120833.328000",
        "120834.329000",
        "120835.322000",
        "120836.328000",
        "120837.335000",
        "120838.314000",
        "120839.305000",
        "120840.310000",
        "120841.317000",
        "120842.310000",
        "120843.305000",
        "120844.309000",
        "120845.294000",
        "120846.304000",
        "120847.312000",
        "120848.348000",
        "120849.343000",
        "120850.295000",
        "120851.305000",
        "120852.317000",
        "120853.314000",
        "120854.326000",
        "120855.322000",
        "120856.320000",
        "120857.352000",
        "120858.303000",
        "120859.318000",
        "120900.321000",
        "120901.290000",
        "120902.339000",
        "120903.312000",
        "120904.293000",
        "120905.313000",
        "120906.307000",
        "120907.291000",
        "120908.306000",
        "120909.315000",
        "120910.292000",
        "120911.324000",
        "120912.317000",
        "120913.319000",
        "120914.311000",
        "120915.324000",
        "120916.332000",
        "120917.327000",
        "120918.321000",
        "120919.327000",
        "120920.333000",
        "120921.314000",
        "120922.337000",
        "120923.332000",
        "120924.313000",
        "120925.286000",
        "120926.312000",
        "120927.318000",
        "120928.330000",
        "120929.327000",
        "120930.320000",
        "120931.312000",
        "120932.330000",
        "120933.310000",
        "120934.327000",
        "120935.320000",
        "120936.295000",
        "120937.339000"
      ],
      "InstanceNumber": [
        1,
        2,
        3,
        4,
        5,
        6,
        7,
        8,
        9,
        10,
        11,
        12,
        13,
        14,
        15,
        16,
        17,
        18,
        19,
        20,
        21,
        22,
        23,
        24,
        25,
        26,
        27,
        28,
        29,
        30,
        31,
        32,
        33,
        34,
        35,
        36,
        37,
        38,
        39,
        40,
        41,
        42,
        43,
        44,
        45,
        46,
        47,
        48,
        49,
        50,
        51,
        52,
        53,
        54,
        55,
        56,
        57,
        58,
        59,
        60,
        61,
        62,
        63,
        64,
        65,
        66,
        67,
        68,
        69,
        70,
        71,
        72,
        73,
        74,
        75,
        76,
        77,
        78,
        79,
        80,
        81,
        82,
        83,
        84,
        85,
        86,
        87,
        88,
        89,
        90,
        91,
        92,
        93,
        94,
        95,
        96,
        97,
        98,
        99,
        100,
        101,
        102,
        103,
        104,
        105,
        106,
        107,
        108,
        109,
        110,
        111,
        112,
        113,
        114,
        115,
        116,
        117,
        118,
        119,
        120,
        121,
        122,
        123,
        124,
        125,
        126,
        127,
        128,
        129,
        130,
        131,
        132,
        133,
        134,
        135,
        136,
        137,
        138,
        139,
        140,
        141,
        142,
        143,
        144,
        145,
        146,
        147,
        148,
        149,
        150,
        151,
        152,
        153,
        154,
        155,
        156,
        157,
        158,
        159,
        160,
        161,
        162,
        163,
        164,
        165,
        166,
        167,
        168,
        169,
        170,
        171,
        172,
        173,
        174,
        175,
        176,
        177,
        178,
        179,
        180,
        181,
        182,
        183,
        184,
        185,
        186,
        187,
        188,
        189,
        190,
        191,
        192,
        193,
        194,
        195,
        196,
        197,
        198,
        199,
        200,
        201,
        202,
        203,
        204,
        205,
        206,
        207,
        208,
        209,
        210,
        211,
        212,
        213,
        214,
        215,
        216,
        217,
        218,
        219,
        220,
        221,
        222,
        223,
        224,
        225,
        226,
        227,
        228,
        229,
        230,
        231,
        232,
        233,
        234,
        235,
        236
      ],
      "LargestImagePixelValue": [
        850,
        879,
        821,
        838,
        920,
        786,
        797,
        868,
        830,
        830,
        875,
        873,
        880,
        945,
        826,
        809,
        885,
        1118,
        1001,
        898,
        876,
        791,
        772,
        772,
        789,
        766,
        812,
        817,
        852,
        842,
        840,
        872,
        863,
        889,
        907,
        1132,
        971,
        931,
        815,
        804,
        796,
        752,
        782,
        756,
        753,
        786,
        819,
        811,
        822,
        826,
        826,
        847,
        845,
        914,
        904,
        894,
        1040,
        912,
        863,
        913,
        875,
        871,
        954,
        956,
        851,
        962,
        1087,
        922,
        849,
        894,
        917,
        816,
        803,
        804,
        852,
        806,
        818,
        811,
        769,
        774,
        778,
        836,
        880,
        943,
        907,
        919,
        934,
        851,
        826,
        806,
        804,
        771,
        750,
        776,
        786,
        740,
        759,
        764,
        790,
        816,
        824,
        827,
        841,
        878,
        878,
        934,
        904,
        882,
        949,
        976,
        978,
        838,
        1073,
        1022,
        994,
        1070,
        866,
        883,
        923,
        870,
        853,
        939,
        931,
        830,
        930,
        901,
        827,
        929,
        938,
        858,
        924,
        875,
        873,
        1016,
        889,
        841,
        877,
        861,
        848,
        937,
        903,
        863,
        1144,
        1094,
        861,
        867,
        902,
        851,
        777,
        793,
        780,
        783,
        815,
        781,
        836,
        938,
        1019,
        960,
        1086,
        1043,
        854,
        859,
        905,
        827,
        830,
        836,
        811,
        830,
        836,
        861,
        840,
        825,
        877,
        889,
        831,
        858,
        1085,
        900,
        903,
        848,
        852,
        817,
        835,
        811,
        746,
        810,
        754,
        743,
        782,
        795,
        790,
        786,
        819,
        783,
        796,
        848,
        853,
        849,
        869,
        948,
        886,
        965,
        1052,
        928,
        845,
        818,
        852,
        855,
        813,
        821,
        899,
        859,
        826,
        868,
        922,
        809,
        825,
        886,
        975,
        822,
        889,
        957,
        805,
        927,
        908,
        855,
        852,
        1010,
        991,
        1023,
        1132,
        922,
        830,
        872,
        851,
        811
      ],
      "WindowCenter": [
        373,
        372,
        371,
        371,
        372,
        369,
        369,
        369,
        370,
        369,
        370,
        370,
        369,
        371,
        370,
        370,
        372,
        373,
        372,
        371,
        370,
        369,
        369,
        369,
        369,
        368,
        369,
        368,
        370,
        369,
        370,
        370,
        370,
        370,
        370,
        372,
        370,
        369,
        369,
        369,
        369,
        368,
        369,
        368,
        369,
        369,
        369,
        370,
        370,
        370,
        370,
        371,
        370,
        371,
        371,
        370,
        371,
        370,
        370,
        371,
        370,
        370,
        371,
        371,
        370,
        370,
        371,
        370,
        369,
