{
  "AcquisitionMatrixPE": 96,
  "AcquisitionNumber": 1,
  "BandwidthPerPixelPhaseEncode": 18.939,
  "BaseResolution": 96,
  "BodyPartExamined": "BRAIN",
  "ConsistencyInfo": "N4_VE11C_LATEST_20160120",
  "ConversionSoftware": "dcm2niix",
  "ConversionSoftwareVersion": "v1.0.20170923 (OpenJPEG build) GCC6.3.0",
  "DerivedVendorReportedEchoSpacing": 0.000550011,
  "DeviceSerialNumber": "66112",
  "DwellTime": 2.2e-06,
  "EchoTime": 0.033,
  "EchoTrainLength": 96,
  "EffectiveEchoSpacing": 0.000550011,
  "FlipAngle": 59,
  "ImageType": [
    "ORIGINAL",
    "PRIMARY",
    "FMRI",
    "NONE",
    "ND",
    "NORM",
    "MOSAIC"
  ],
  "InstitutionAddress": "Maynard_3_Hanover_NH_US_03755",
  "InstitutionName": "Dartmouth_College_-_PBS",
  "MagneticFieldStrength": 3,
  "Manufacturer": "Siemens",
  "ManufacturersModelName": "Prisma",
  "Modality": "MR",
  "MultibandAccelerationFactor": 4,
  "PercentPhaseFOV": 100,
  "PhaseEncodingDirection": "j-",
  "PhaseEncodingSteps": 96,
  "PhaseResolution": 1,
  "ProcedureStepDescription": "Gobbini_Matteo_1038_hyperface",
  "ProtocolName": "func_run-08_task-visualmemory",
  "PulseSequenceDetails": "%SiemensSeq%_ep2d_bold",
  "ReceiveCoilActiveElements": "HEA;HEP",
  "ReceiveCoilName": "Head_32",
  "ReconMatrixPE": 96,
  "RepetitionTime": 1,
  "ScanOptions": "FS",
  "ScanningSequence": "EP",
  "SequenceName": "_epfid2d1_96",
  "SequenceVariant": "SK",
  "SeriesDescription": "func_run-08_task-visualmemory",
  "SliceTiming": [
    0.735,
    0,
    0.49,
    0.0825,
    0.5725,
    0.1625,
    0.6525,
    0.3275,
    0.8175,
    0.4075,
    0.8975,
    0.245,
    0.735,
    0,
    0.49,
    0.0825,
    0.5725,
    0.1625,
    0.6525,
    0.3275,
    0.8175,
    0.4075,
    0.8975,
    0.245,
    0.735,
    0,
    0.49,
    0.0825,
    0.5725,
    0.1625,
    0.6525,
    0.3275,
    0.8175,
    0.4075,
    0.8975,
    0.245,
    0.735,
    0,
    0.49,
    0.0825,
    0.5725,
    0.1625,
    0.6525,
    0.3275,
    0.8175,
    0.4075,
    0.8975,
    0.245
  ],
  "SoftwareVersions": "syngo_MR_E11",
  "StationName": "AWP66112",
  "TotalReadoutTime": 0.0522511,
  "time": {
    "samples": {
      "AcquisitionNumber": [
        1,
        2,
        3,
        4,
        5,
        6,
        7,
        8,
        9,
        10,
        11,
        12,
        13,
        14,
        15,
        16,
        17,
        18,
        19,
        20,
        21,
        22,
        23,
        24,
        25,
        26,
        27,
        28,
        29,
        30,
        31,
        32,
        33,
        34,
        35,
        36,
        37,
        38,
        39,
        40,
        41,
        42,
        43,
        44,
        45,
        46,
        47,
        48,
        49,
        50,
        51,
        52,
        53,
        54,
        55,
        56,
        57,
        58,
        59,
        60,
        61,
        62,
        63,
        64,
        65,
        66,
        67,
        68,
        69,
        70,
        71,
        72,
        73,
        74,
        75,
        76,
        77,
        78,
        79,
        80,
        81,
        82,
        83,
        84,
        85,
        86,
        87,
        88,
        89,
        90,
        91,
        92,
        93,
        94,
        95,
        96,
        97,
        98,
        99,
        100,
        101,
        102,
        103,
        104,
        105,
        106,
        107,
        108,
        109,
        110,
        111,
        112,
        113,
        114,
        115,
        116,
        117,
        118,
        119,
        120,
        121,
        122,
        123,
        124,
        125,
        126,
        127,
        128,
        129,
        130,
        131,
        132,
        133,
        134,
        135,
        136,
        137,
        138,
        139,
        140,
        141,
        142,
        143,
        144,
        145,
        146,
        147,
        148,
        149,
        150,
        151,
        152,
        153,
        154,
        155,
        156,
        157,
        158,
        159,
        160,
        161,
        162,
        163,
        164,
        165,
        166,
        167,
        168,
        169,
        170,
        171,
        172,
        173,
        174,
        175,
        176,
        177,
        178,
        179,
        180,
        181,
        182,
        183,
        184,
        185,
        186,
        187,
        188,
        189,
        190,
        191,
        192,
        193,
        194,
        195,
        196,
        197,
        198,
        199,
        200,
        201,
        202,
        203,
        204,
        205,
        206,
        207,
        208,
        209,
        210,
        211,
        212,
        213,
        214,
        215,
        216,
        217,
        218,
        219,
        220,
        221,
        222,
        223,
        224,
        225,
        226,
        227,
        228,
        229,
        230,
        231,
        232,
        233,
        234,
        235,
        236,
        237,
        238,
        239,
        240,
        241,
        242,
        243,
        244,
        245,
        246,
        247,
        248,
        249,
        250,
        251,
        252,
        253,
        254,
        255,
        256,
        257,
        258,
        259,
        260,
        261,
        262,
        263,
        264,
        265,
        266,
        267,
        268,
        269,
        270,
        271,
        272,
        273,
        274,
        275,
        276,
        277,
        278,
        279,
        280,
        281,
        282,
        283,
        284,
        285,
        286,
        287,
        288
      ],
      "AcquisitionTime": [
        "122117.022500",
        "122118.022500",
        "122119.022500",
        "122120.022500",
        "122121.022500",
        "122122.022500",
        "122123.022500",
        "122124.022500",
        "122125.022500",
        "122126.022500",
        "122127.022500",
        "122128.022500",
        "122129.022500",
        "122130.022500",
        "122131.022500",
        "122132.022500",
        "122133.022500",
        "122134.022500",
        "122135.022500",
        "122136.022500",
        "122137.022500",
        "122138.022500",
        "122139.022500",
        "122140.022500",
        "122141.022500",
        "122142.022500",
        "122143.022500",
        "122144.022500",
        "122145.022500",
        "122146.022500",
        "122147.022500",
        "122148.022500",
        "122149.022500",
        "122150.022500",
        "122151.022500",
        "122152.022500",
        "122153.022500",
        "122154.022500",
        "122155.022500",
        "122156.022500",
        "122157.022500",
        "122158.022500",
        "122159.022500",
        "122200.022500",
        "122201.022500",
        "122202.022500",
        "122203.022500",
        "122204.022500",
        "122205.022500",
        "122206.022500",
        "122207.022500",
        "122208.022500",
        "122209.022500",
        "122210.022500",
        "122211.022500",
        "122212.022500",
        "122213.022500",
        "122214.022500",
        "122215.022500",
        "122216.022500",
        "122217.022500",
        "122218.022500",
        "122219.022500",
        "122220.022500",
        "122221.022500",
        "122222.022500",
        "122223.022500",
        "122224.022500",
        "122225.022500",
        "122226.022500",
        "122227.022500",
        "122228.022500",
        "122229.022500",
        "122230.022500",
        "122231.022500",
        "122232.022500",
        "122233.022500",
        "122234.022500",
        "122235.022500",
        "122236.022500",
        "122237.022500",
        "122238.022500",
        "122239.022500",
        "122240.022500",
        "122241.022500",
        "122242.022500",
        "122243.022500",
        "122244.022500",
        "122245.022500",
        "122246.022500",
        "122247.022500",
        "122248.022500",
        "122249.022500",
        "122250.022500",
        "122251.022500",
        "122252.022500",
        "122253.022500",
        "122254.022500",
        "122255.022500",
        "122256.022500",
        "122257.022500",
        "122258.022500",
        "122259.022500",
        "122300.022500",
        "122301.022500",
        "122302.022500",
        "122303.022500",
        "122304.022500",
        "122305.022500",
        "122306.022500",
        "122307.022500",
        "122308.022500",
        "122309.022500",
        "122310.022500",
        "122311.022500",
        "122312.022500",
        "122313.022500",
        "122314.022500",
        "122315.022500",
        "122316.022500",
        "122317.022500",
        "122318.022500",
        "122319.022500",
        "122320.022500",
        "122321.022500",
        "122322.022500",
        "122323.022500",
        "122324.022500",
        "122325.022500",
        "122326.022500",
        "122327.022500",
        "122328.022500",
        "122329.022500",
        "122330.022500",
        "122331.022500",
        "122332.022500",
        "122333.022500",
        "122334.022500",
        "122335.022500",
        "122336.022500",
        "122337.022500",
        "122338.022500",
        "122339.022500",
        "122340.022500",
        "122341.022500",
        "122342.022500",
        "122343.022500",
        "122344.022500",
        "122345.022500",
        "122346.022500",
        "122347.022500",
        "122348.022500",
        "122349.022500",
        "122350.022500",
        "122351.022500",
        "122352.022500",
        "122353.022500",
        "122354.022500",
        "122355.022500",
        "122356.022500",
        "122357.022500",
        "122358.022500",
        "122359.022500",
        "122400.022500",
        "122401.022500",
        "122402.022500",
        "122403.022500",
        "122404.022500",
        "122405.022500",
        "122406.022500",
        "122407.022500",
        "122408.022500",
        "122409.022500",
        "122410.022500",
        "122411.022500",
        "122412.022500",
        "122413.022500",
        "122414.022500",
        "122415.022500",
        "122416.022500",
        "122417.022500",
        "122418.022500",
        "122419.022500",
        "122420.022500",
        "122421.022500",
        "122422.022500",
        "122423.022500",
        "122424.022500",
        "122425.022500",
        "122426.022500",
        "122427.022500",
        "122428.022500",
        "122429.022500",
        "122430.022500",
        "122431.022500",
        "122432.022500",
        "122433.022500",
        "122434.022500",
        "122435.022500",
        "122436.022500",
        "122437.022500",
        "122438.022500",
        "122439.022500",
        "122440.022500",
        "122441.022500",
        "122442.022500",
        "122443.022500",
        "122444.022500",
        "122445.022500",
        "122446.022500",
        "122447.022500",
        "122448.022500",
        "122449.022500",
        "122450.022500",
        "122451.022500",
        "122452.022500",
        "122453.022500",
        "122454.022500",
        "122455.022500",
        "122456.022500",
        "122457.022500",
        "122458.022500",
        "122459.022500",
        "122500.022500",
        "122501.022500",
        "122502.022500",
        "122503.022500",
        "122504.022500",
        "122505.022500",
        "122506.022500",
        "122507.022500",
        "122508.022500",
        "122509.022500",
        "122510.022500",
        "122511.022500",
        "122512.022500",
        "122513.022500",
        "122514.022500",
        "122515.022500",
        "122516.022500",
        "122517.022500",
        "122518.022500",
        "122519.022500",
        "122520.022500",
        "122521.022500",
        "122522.022500",
        "122523.022500",
        "122524.022500",
        "122525.022500",
        "122526.022500",
        "122527.022500",
        "122528.022500",
        "122529.022500",
        "122530.022500",
        "122531.022500",
        "122532.022500",
        "122533.022500",
        "122534.022500",
        "122535.022500",
        "122536.022500",
        "122537.022500",
        "122538.022500",
        "122539.022500",
        "122540.022500",
        "122541.022500",
        "122542.022500",
        "122543.022500",
        "122544.022500",
        "122545.022500",
        "122546.022500",
        "122547.022500",
        "122548.022500",
        "122549.022500",
        "122550.022500",
        "122551.022500",
        "122552.022500",
        "122553.022500",
        "122554.022500",
        "122555.022500",
        "122556.022500",
        "122557.022500",
        "122558.022500",
        "122559.022500",
        "122600.022500",
        "122601.022500",
        "122602.022500",
        "122603.022500",
        "122604.022500"
      ],
      "ContentTime": [
        "122118.361000",
        "122119.177000",
        "122120.226000",
        "122121.200000",
        "122122.213000",
        "122123.279000",
        "122124.246000",
        "122125.222000",
        "122126.227000",
        "122127.206000",
        "122128.225000",
        "122129.212000",
        "122130.190000",
        "122131.219000",
        "122132.229000",
        "122133.216000",
        "122134.216000",
        "122135.251000",
        "122136.229000",
        "122137.234000",
        "122138.251000",
        "122139.259000",
        "122140.257000",
        "122141.212000",
        "122142.205000",
        "122143.223000",
        "122144.232000",
        "122145.227000",
        "122146.276000",
        "122147.238000",
        "122148.230000",
        "122149.220000",
        "122150.219000",
        "122151.206000",
        "122152.222000",
        "122153.200000",
        "122154.218000",
        "122155.222000",
        "122156.237000",
        "122157.209000",
        "122158.217000",
        "122159.204000",
        "122200.231000",
        "122201.245000",
        "122202.235000",
        "122203.246000",
        "122204.214000",
        "122205.205000",
        "122206.241000",
        "122207.208000",
        "122208.243000",
        "122209.234000",
        "122210.274000",
        "122211.215000",
        "122212.209000",
        "122213.223000",
        "122214.255000",
        "122215.257000",
        "122216.282000",
        "122217.204000",
        "122218.216000",
        "122219.237000",
        "122220.267000",
        "122221.237000",
        "122222.233000",
        "122223.227000",
        "122224.219000",
        "122225.250000",
        "122226.231000",
        "122227.236000",
        "122228.249000",
        "122229.211000",
        "122230.216000",
        "122231.221000",
        "122232.219000",
        "122233.219000",
        "122234.206000",
        "122235.225000",
        "122236.214000",
        "122237.228000",
        "122238.227000",
        "122239.261000",
        "122240.225000",
        "122241.221000",
        "122242.252000",
        "122243.270000",
        "122244.231000",
        "122245.197000",
        "122246.238000",
        "122247.220000",
        "122248.217000",
        "122249.263000",
        "122250.221000",
        "122251.211000",
        "122252.211000",
        "122253.264000",
        "122254.219000",
        "122255.201000",
        "122256.238000",
        "122257.216000",
        "122258.234000",
        "122259.215000",
        "122300.241000",
        "122301.226000",
        "122302.215000",
        "122303.187000",
        "122304.225000",
        "122305.223000",
        "122306.219000",
        "122307.318000",
        "122308.190000",
        "122309.224000",
        "122310.232000",
        "122311.230000",
        "122312.236000",
        "122313.256000",
        "122314.241000",
        "122315.234000",
        "122316.234000",
        "122317.252000",
        "122318.232000",
        "122319.235000",
        "122320.215000",
        "122321.254000",
        "122322.238000",
        "122323.198000",
        "122324.212000",
        "122325.216000",
        "122326.236000",
        "122327.243000",
        "122328.215000",
        "122329.239000",
        "122330.234000",
        "122331.237000",
        "122332.241000",
        "122333.214000",
        "122334.215000",
        "122335.209000",
        "122336.237000",
        "122337.198000",
        "122338.205000",
        "122339.212000",
        "122340.234000",
        "122341.204000",
        "122342.234000",
        "122343.215000",
        "122344.232000",
        "122345.212000",
        "122346.232000",
        "122347.208000",
        "122348.208000",
        "122349.225000",
        "122350.201000",
        "122351.226000",
        "122352.214000",
        "122353.246000",
        "122354.199000",
        "122355.239000",
        "122356.247000",
        "122357.216000",
        "122358.228000",
        "122359.225000",
        "122400.221000",
        "122401.206000",
        "122402.242000",
        "122403.213000",
        "122404.223000",
        "122405.215000",
        "122406.214000",
        "122407.188000",
        "122408.214000",
        "122409.207000",
        "122410.209000",
        "122411.343000",
        "122412.216000",
        "122413.236000",
        "122414.241000",
        "122415.228000",
        "122416.221000",
        "122417.184000",
        "122418.243000",
        "122419.207000",
        "122420.238000",
        "122421.239000",
        "122422.204000",
        "122423.190000",
        "122424.236000",
        "122425.227000",
        "122426.243000",
        "122427.245000",
        "122428.220000",
        "122429.221000",
        "122430.242000",
        "122431.221000",
        "122432.220000",
        "122433.256000",
        "122434.247000",
        "122435.228000",
        "122436.190000",
        "122437.229000",
        "122438.252000",
        "122439.263000",
        "122440.237000",
        "122441.264000",
        "122442.242000",
        "122443.237000",
        "122444.259000",
        "122445.240000",
        "122446.221000",
        "122447.248000",
        "122448.231000",
        "122449.241000",
        "122450.222000",
        "122451.214000",
        "122452.212000",
        "122453.201000",
        "122454.219000",
        "122455.252000",
        "122456.231000",
        "122457.249000",
        "122458.252000",
        "122459.216000",
        "122500.217000",
        "122501.234000",
        "122502.275000",
        "122503.238000",
        "122504.219000",
        "122505.232000",
        "122506.227000",
        "122507.227000",
        "122508.216000",
        "122509.236000",
        "122510.224000",
        "122511.227000",
        "122512.285000",
        "122513.190000",
        "122514.201000",
        "122515.216000",
        "122516.222000",
        "122517.212000",
        "122518.218000",
        "122519.242000",
        "122520.199000",
        "122521.226000",
        "122522.221000",
        "122523.247000",
        "122524.237000",
        "122525.224000",
        "122526.212000",
        "122527.220000",
        "122528.205000",
        "122529.221000",
        "122530.205000",
        "122531.226000",
        "122532.214000",
        "122533.282000",
        "122534.234000",
        "122535.224000",
        "122536.237000",
        "122537.246000",
        "122538.260000",
        "122539.287000",
        "122540.222000",
        "122541.234000",
        "122542.214000",
        "122543.248000",
        "122544.227000",
        "122545.214000",
        "122546.218000",
        "122547.222000",
        "122548.235000",
        "122549.189000",
        "122550.217000",
        "122551.223000",
        "122552.215000",
        "122553.178000",
        "122554.217000",
        "122555.225000",
        "122556.234000",
        "122557.212000",
        "122558.217000",
        "122559.206000",
        "122600.204000",
        "122601.227000",
        "122602.257000",
        "122603.211000",
        "122604.252000",
        "122605.269000"
      ],
      "InstanceCreationTime": [
        "122118.361000",
        "122119.177000",
        "122120.226000",
        "122121.200000",
        "122122.213000",
        "122123.279000",
        "122124.246000",
        "122125.222000",
        "122126.227000",
        "122127.206000",
        "122128.225000",
        "122129.212000",
        "122130.190000",
        "122131.219000",
        "122132.229000",
        "122133.216000",
        "122134.216000",
        "122135.251000",
        "122136.229000",
        "122137.234000",
        "122138.251000",
        "122139.259000",
        "122140.257000",
        "122141.212000",
        "122142.205000",
        "122143.223000",
        "122144.232000",
        "122145.227000",
        "122146.276000",
        "122147.238000",
        "122148.230000",
        "122149.220000",
        "122150.219000",
        "122151.206000",
        "122152.222000",
        "122153.200000",
        "122154.218000",
        "122155.222000",
        "122156.237000",
        "122157.209000",
        "122158.217000",
        "122159.204000",
        "122200.231000",
        "122201.245000",
        "122202.235000",
        "122203.246000",
        "122204.214000",
        "122205.205000",
        "122206.241000",
        "122207.208000",
        "122208.243000",
        "122209.234000",
        "122210.274000",
        "122211.215000",
        "122212.209000",
        "122213.223000",
        "122214.255000",
        "122215.257000",
        "122216.282000",
        "122217.204000",
        "122218.216000",
        "122219.237000",
        "122220.267000",
        "122221.237000",
        "122222.233000",
        "122223.227000",
        "122224.219000",
        "122225.250000",
        "122226.231000",
        "122227.236000",
        "122228.249000",
        "122229.211000",
        "122230.216000",
        "122231.221000",
        "122232.219000",
        "122233.219000",
        "122234.206000",
        "122235.225000",
        "122236.214000",
        "122237.228000",
        "122238.227000",
        "122239.261000",
        "122240.225000",
        "122241.221000",
        "122242.252000",
        "122243.270000",
        "122244.231000",
        "122245.197000",
        "122246.238000",
        "122247.220000",
        "122248.217000",
        "122249.263000",
        "122250.221000",
        "122251.211000",
        "122252.211000",
        "122253.264000",
        "122254.219000",
        "122255.201000",
        "122256.238000",
        "122257.216000",
        "122258.234000",
        "122259.215000",
        "122300.241000",
        "122301.226000",
        "122302.215000",
        "122303.187000",
        "122304.225000",
        "122305.223000",
        "122306.219000",
        "122307.318000",
        "122308.190000",
        "122309.224000",
        "122310.232000",
        "122311.230000",
        "122312.236000",
        "122313.256000",
        "122314.241000",
        "122315.234000",
        "122316.234000",
        "122317.252000",
        "122318.232000",
        "122319.235000",
        "122320.215000",
        "122321.254000",
        "122322.238000",
        "122323.198000",
        "122324.212000",
        "122325.216000",
        "122326.236000",
        "122327.243000",
        "122328.215000",
        "122329.239000",
        "122330.234000",
        "122331.237000",
        "122332.241000",
        "122333.214000",
        "122334.215000",
        "122335.209000",
        "122336.237000",
        "122337.198000",
        "122338.205000",
        "122339.212000",
        "122340.234000",
        "122341.204000",
        "122342.234000",
        "122343.215000",
        "122344.232000",
        "122345.212000",
        "122346.232000",
        "122347.208000",
        "122348.208000",
        "122349.225000",
        "122350.201000",
        "122351.226000",
        "122352.214000",
        "122353.246000",
        "122354.199000",
        "122355.239000",
        "122356.247000",
        "122357.216000",
        "122358.228000",
        "122359.225000",
        "122400.221000",
        "122401.206000",
        "122402.242000",
        "122403.213000",
        "122404.223000",
        "122405.215000",
        "122406.214000",
        "122407.188000",
        "122408.214000",
        "122409.207000",
        "122410.209000",
        "122411.343000",
        "122412.216000",
        "122413.236000",
        "122414.241000",
        "122415.228000",
        "122416.221000",
        "122417.184000",
        "122418.243000",
        "122419.207000",
        "122420.238000",
        "122421.239000",
        "122422.204000",
        "122423.190000",
        "122424.236000",
        "122425.227000",
        "122426.243000",
        "122427.245000",
        "122428.220000",
        "122429.221000",
        "122430.242000",
        "122431.221000",
        "122432.220000",
        "122433.256000",
        "122434.247000",
        "122435.228000",
        "122436.190000",
        "122437.229000",
        "122438.252000",
        "122439.263000",
        "122440.237000",
        "122441.264000",
        "122442.242000",
        "122443.237000",
        "122444.259000",
        "122445.240000",
        "122446.221000",
        "122447.248000",
        "122448.231000",
        "122449.241000",
        "122450.222000",
        "122451.214000",
        "122452.212000",
        "122453.201000",
        "122454.219000",
        "122455.252000",
        "122456.231000",
        "122457.249000",
        "122458.252000",
        "122459.216000",
        "122500.217000",
        "122501.234000",
        "122502.275000",
        "122503.238000",
        "122504.219000",
        "122505.232000",
        "122506.227000",
        "122507.227000",
        "122508.216000",
        "122509.236000",
        "122510.224000",
        "122511.227000",
        "122512.285000",
        "122513.190000",
        "122514.201000",
        "122515.216000",
        "122516.222000",
        "122517.212000",
        "122518.218000",
        "122519.242000",
        "122520.199000",
        "122521.226000",
        "122522.221000",
        "122523.247000",
        "122524.237000",
        "122525.224000",
        "122526.212000",
        "122527.220000",
        "122528.205000",
        "122529.221000",
        "122530.205000",
        "122531.226000",
        "122532.214000",
        "122533.282000",
        "122534.234000",
        "122535.224000",
        "122536.237000",
        "122537.246000",
        "122538.260000",
        "122539.287000",
        "122540.222000",
        "122541.234000",
        "122542.214000",
        "122543.248000",
        "122544.227000",
        "122545.214000",
        "122546.218000",
        "122547.222000",
        "122548.235000",
        "122549.189000",
        "122550.217000",
        "122551.223000",
        "122552.215000",
        "122553.178000",
        "122554.217000",
        "122555.225000",
        "122556.234000",
        "122557.212000",
        "122558.217000",
        "122559.206000",
        "122600.204000",
        "122601.227000",
        "122602.257000",
        "122603.211000",
        "122604.252000",
        "122605.269000"
      ],
      "InstanceNumber": [
        1,
        2,
        3,
        4,
        5,
        6,
        7,
        8,
        9,
        10,
        11,
        12,
        13,
        14,
        15,
        16,
        17,
        18,
        19,
        20,
        21,
        22,
        23,
        24,
        25,
        26,
        27,
        28,
        29,
        30,
        31,
        32,
        33,
        34,
        35,
        36,
        37,
        38,
        39,
        40,
        41,
        42,
        43,
        44,
        45,
        46,
        47,
        48,
        49,
        50,
        51,
        52,
        53,
        54,
        55,
        56,
        57,
        58,
        59,
        60,
        61,
        62,
        63,
        64,
        65,
        66,
        67,
        68,
        69,
        70,
        71,
        72,
        73,
        74,
        75,
        76,
        77,
        78,
        79,
        80,
        81,
        82,
        83,
        84,
        85,
        86,
        87,
        88,
        89,
        90,
        91,
        92,
        93,
        94,
        95,
        96,
        97,
        98,
        99,
        100,
        101,
        102,
        103,
        104,
        105,
        106,
        107,
        108,
        109,
        110,
        111,
        112,
        113,
        114,
        115,
        116,
        117,
        118,
        119,
        120,
        121,
        122,
        123,
        124,
        125,
        126,
        127,
        128,
        129,
        130,
        131,
        132,
        133,
        134,
        135,
        136,
        137,
        138,
        139,
        140,
        141,
        142,
        143,
        144,
        145,
        146,
        147,
        148,
        149,
        150,
        151,
        152,
        153,
        154,
        155,
        156,
        157,
        158,
        159,
        160,
        161,
        162,
        163,
        164,
        165,
        166,
        167,
        168,
        169,
        170,
        171,
        172,
        173,
        174,
        175,
        176,
        177,
        178,
        179,
        180,
        181,
        182,
        183,
        184,
        185,
        186,
        187,
        188,
        189,
        190,
        191,
        192,
        193,
        194,
        195,
        196,
