{
  "AcquisitionMatrixPE": 96,
  "AcquisitionNumber": 1,
  "BandwidthPerPixelPhaseEncode": 18.939,
  "BaseResolution": 96,
  "BodyPartExamined": "BRAIN",
  "ConsistencyInfo": "N4_VE11C_LATEST_20160120",
  "ConversionSoftware": "dcm2niix",
  "ConversionSoftwareVersion": "v1.0.20170923 (OpenJPEG build) GCC6.3.0",
  "DerivedVendorReportedEchoSpacing": 0.000550011,
  "DeviceSerialNumber": "66112",
  "DwellTime": 2.2e-06,
  "EchoTime": 0.033,
  "EchoTrainLength": 96,
  "EffectiveEchoSpacing": 0.000550011,
  "FlipAngle": 59,
  "ImageType": [
    "ORIGINAL",
    "PRIMARY",
    "FMRI",
    "NONE",
    "ND",
    "NORM",
    "MOSAIC"
  ],
  "InstitutionAddress": "Maynard_3_Hanover_NH_US_03755",
  "InstitutionName": "Dartmouth_College_-_PBS",
  "MagneticFieldStrength": 3,
  "Manufacturer": "Siemens",
  "ManufacturersModelName": "Prisma",
  "Modality": "MR",
  "MultibandAccelerationFactor": 4,
  "PercentPhaseFOV": 100,
  "PhaseEncodingDirection": "j-",
  "PhaseEncodingSteps": 96,
  "PhaseResolution": 1,
  "ProcedureStepDescription": "Gobbini_Matteo_1038_hyperface",
  "ProtocolName": "func_run-02_task-visualmemory",
  "PulseSequenceDetails": "%SiemensSeq%_ep2d_bold",
  "ReceiveCoilActiveElements": "HEA;HEP",
  "ReceiveCoilName": "Head_32",
  "ReconMatrixPE": 96,
  "RepetitionTime": 1,
  "ScanOptions": "FS",
  "ScanningSequence": "EP",
  "SequenceName": "_epfid2d1_96",
  "SequenceVariant": "SK",
  "SeriesDescription": "func_run-02_task-visualmemory",
  "SliceTiming": [
    0.735,
    0,
    0.49,
    0.0825,
    0.5725,
    0.165,
    0.655,
    0.3275,
    0.8175,
    0.41,
    0.9,
    0.245,
    0.735,
    0,
    0.49,
    0.0825,
    0.5725,
    0.165,
    0.655,
    0.3275,
    0.8175,
    0.41,
    0.9,
    0.245,
    0.735,
    0,
    0.49,
    0.0825,
    0.5725,
    0.165,
    0.655,
    0.3275,
    0.8175,
    0.41,
    0.9,
    0.245,
    0.735,
    0,
    0.49,
    0.0825,
    0.5725,
    0.165,
    0.655,
    0.3275,
    0.8175,
    0.41,
    0.9,
    0.245
  ],
  "SoftwareVersions": "syngo_MR_E11",
  "StationName": "AWP66112",
  "TotalReadoutTime": 0.0522511,
  "time": {
    "samples": {
      "AcquisitionNumber": [
        1,
        2,
        3,
        4,
        5,
        6,
        7,
        8,
        9,
        10,
        11,
        12,
        13,
        14,
        15,
        16,
        17,
        18,
        19,
        20,
        21,
        22,
        23,
        24,
        25,
        26,
        27,
        28,
        29,
        30,
        31,
        32,
        33,
        34,
        35,
        36,
        37,
        38,
        39,
        40,
        41,
        42,
        43,
        44,
        45,
        46,
        47,
        48,
        49,
        50,
        51,
        52,
        53,
        54,
        55,
        56,
        57,
        58,
        59,
        60,
        61,
        62,
        63,
        64,
        65,
        66,
        67,
        68,
        69,
        70,
        71,
        72,
        73,
        74,
        75,
        76,
        77,
        78,
        79,
        80,
        81,
        82,
        83,
        84,
        85,
        86,
        87,
        88,
        89,
        90,
        91,
        92,
        93,
        94,
        95,
        96,
        97,
        98,
        99,
        100,
        101,
        102,
        103,
        104,
        105,
        106,
        107,
        108,
        109,
        110,
        111,
        112,
        113,
        114,
        115,
        116,
        117,
        118,
        119,
        120,
        121,
        122,
        123,
        124,
        125,
        126,
        127,
        128,
        129,
        130,
        131,
        132,
        133,
        134,
        135,
        136,
        137,
        138,
        139,
        140,
        141,
        142,
        143,
        144,
        145,
        146,
        147,
        148,
        149,
        150,
        151,
        152,
        153,
        154,
        155,
        156,
        157,
        158,
        159,
        160,
        161,
        162,
        163,
        164,
        165,
        166,
        167,
        168,
        169,
        170,
        171,
        172,
        173,
        174,
        175,
        176,
        177,
        178,
        179,
        180,
        181,
        182,
        183,
        184,
        185,
        186,
        187,
        188,
        189,
        190,
        191,
        192,
        193,
        194,
        195,
        196,
        197,
        198,
        199,
        200,
        201,
        202,
        203,
        204,
        205,
        206,
        207,
        208,
        209,
        210,
        211,
        212,
        213,
        214,
        215,
        216,
        217,
        218,
        219,
        220,
        221,
        222,
        223,
        224,
        225,
        226,
        227,
        228,
        229,
        230,
        231,
        232,
        233,
        234,
        235,
        236,
        237,
        238,
        239,
        240,
        241,
        242,
        243,
        244,
        245,
        246,
        247,
        248,
        249,
        250,
        251,
        252,
        253,
        254,
        255,
        256,
        257,
        258,
        259,
        260,
        261,
        262,
        263,
        264,
        265,
        266,
        267,
        268,
        269,
        270,
        271,
        272,
        273,
        274,
        275,
        276,
        277,
        278,
        279,
        280,
        281,
        282,
        283,
        284,
        285,
        286,
        287,
        288
      ],
      "AcquisitionTime": [
        "114912.177500",
        "114913.177500",
        "114914.177500",
        "114915.177500",
        "114916.177500",
        "114917.177500",
        "114918.177500",
        "114919.177500",
        "114920.177500",
        "114921.177500",
        "114922.177500",
        "114923.177500",
        "114924.177500",
        "114925.177500",
        "114926.177500",
        "114927.177500",
        "114928.177500",
        "114929.177500",
        "114930.177500",
        "114931.177500",
        "114932.177500",
        "114933.177500",
        "114934.177500",
        "114935.177500",
        "114936.177500",
        "114937.177500",
        "114938.177500",
        "114939.177500",
        "114940.177500",
        "114941.177500",
        "114942.177500",
        "114943.177500",
        "114944.177500",
        "114945.177500",
        "114946.177500",
        "114947.177500",
        "114948.177500",
        "114949.177500",
        "114950.177500",
        "114951.177500",
        "114952.177500",
        "114953.177500",
        "114954.177500",
        "114955.177500",
        "114956.177500",
        "114957.177500",
        "114958.177500",
        "114959.177500",
        "115000.177500",
        "115001.177500",
        "115002.177500",
        "115003.177500",
        "115004.177500",
        "115005.177500",
        "115006.177500",
        "115007.177500",
        "115008.177500",
        "115009.177500",
        "115010.177500",
        "115011.177500",
        "115012.177500",
        "115013.177500",
        "115014.177500",
        "115015.177500",
        "115016.177500",
        "115017.177500",
        "115018.177500",
        "115019.177500",
        "115020.177500",
        "115021.177500",
        "115022.177500",
        "115023.177500",
        "115024.177500",
        "115025.177500",
        "115026.177500",
        "115027.177500",
        "115028.177500",
        "115029.177500",
        "115030.177500",
        "115031.177500",
        "115032.177500",
        "115033.177500",
        "115034.177500",
        "115035.177500",
        "115036.177500",
        "115037.177500",
        "115038.177500",
        "115039.177500",
        "115040.177500",
        "115041.177500",
        "115042.177500",
        "115043.177500",
        "115044.177500",
        "115045.177500",
        "115046.177500",
        "115047.177500",
        "115048.177500",
        "115049.177500",
        "115050.177500",
        "115051.177500",
        "115052.177500",
        "115053.177500",
        "115054.177500",
        "115055.177500",
        "115056.177500",
        "115057.177500",
        "115058.177500",
        "115059.177500",
        "115100.177500",
        "115101.177500",
        "115102.177500",
        "115103.177500",
        "115104.177500",
        "115105.177500",
        "115106.177500",
        "115107.177500",
        "115108.177500",
        "115109.177500",
        "115110.177500",
        "115111.177500",
        "115112.177500",
        "115113.177500",
        "115114.177500",
        "115115.177500",
        "115116.177500",
        "115117.177500",
        "115118.177500",
        "115119.177500",
        "115120.177500",
        "115121.177500",
        "115122.177500",
        "115123.177500",
        "115124.177500",
        "115125.177500",
        "115126.177500",
        "115127.177500",
        "115128.177500",
        "115129.177500",
        "115130.177500",
        "115131.177500",
        "115132.177500",
        "115133.177500",
        "115134.177500",
        "115135.177500",
        "115136.177500",
        "115137.177500",
        "115138.177500",
        "115139.177500",
        "115140.177500",
        "115141.177500",
        "115142.177500",
        "115143.177500",
        "115144.177500",
        "115145.177500",
        "115146.177500",
        "115147.177500",
        "115148.177500",
        "115149.177500",
        "115150.177500",
        "115151.177500",
        "115152.177500",
        "115153.177500",
        "115154.177500",
        "115155.177500",
        "115156.177500",
        "115157.177500",
        "115158.177500",
        "115159.177500",
        "115200.177500",
        "115201.177500",
        "115202.177500",
        "115203.177500",
        "115204.177500",
        "115205.177500",
        "115206.177500",
        "115207.177500",
        "115208.177500",
        "115209.177500",
        "115210.177500",
        "115211.177500",
        "115212.177500",
        "115213.177500",
        "115214.177500",
        "115215.177500",
        "115216.177500",
        "115217.177500",
        "115218.177500",
        "115219.177500",
        "115220.177500",
        "115221.177500",
        "115222.177500",
        "115223.177500",
        "115224.177500",
        "115225.177500",
        "115226.177500",
        "115227.177500",
        "115228.177500",
        "115229.177500",
        "115230.177500",
        "115231.177500",
        "115232.177500",
        "115233.177500",
        "115234.177500",
        "115235.177500",
        "115236.177500",
        "115237.177500",
        "115238.177500",
        "115239.177500",
        "115240.177500",
        "115241.177500",
        "115242.177500",
        "115243.177500",
        "115244.177500",
        "115245.177500",
        "115246.177500",
        "115247.177500",
        "115248.177500",
        "115249.177500",
        "115250.177500",
        "115251.177500",
        "115252.177500",
        "115253.177500",
        "115254.177500",
        "115255.177500",
        "115256.177500",
        "115257.177500",
        "115258.177500",
        "115259.177500",
        "115300.177500",
        "115301.177500",
        "115302.177500",
        "115303.177500",
        "115304.177500",
        "115305.177500",
        "115306.177500",
        "115307.177500",
        "115308.177500",
        "115309.177500",
        "115310.177500",
        "115311.177500",
        "115312.177500",
        "115313.177500",
        "115314.177500",
        "115315.177500",
        "115316.177500",
        "115317.177500",
        "115318.177500",
        "115319.177500",
        "115320.177500",
        "115321.177500",
        "115322.177500",
        "115323.177500",
        "115324.177500",
        "115325.177500",
        "115326.177500",
        "115327.177500",
        "115328.177500",
        "115329.177500",
        "115330.177500",
        "115331.177500",
        "115332.177500",
        "115333.177500",
        "115334.177500",
        "115335.177500",
        "115336.177500",
        "115337.177500",
        "115338.177500",
        "115339.177500",
        "115340.177500",
        "115341.177500",
        "115342.177500",
        "115343.177500",
        "115344.177500",
        "115345.177500",
        "115346.177500",
        "115347.177500",
        "115348.177500",
        "115349.177500",
        "115350.177500",
        "115351.177500",
        "115352.177500",
        "115353.177500",
        "115354.177500",
        "115355.177500",
        "115356.177500",
        "115357.177500",
        "115358.177500",
        "115359.177500"
      ],
      "ContentTime": [
        "114913.347000",
        "114914.178000",
        "114915.183000",
        "114916.177000",
        "114917.147000",
        "114918.163000",
        "114919.168000",
        "114920.153000",
        "114921.131000",
        "114922.191000",
        "114923.179000",
        "114924.173000",
        "114925.163000",
        "114926.172000",
        "114927.177000",
        "114928.174000",
        "114929.160000",
        "114930.152000",
        "114931.238000",
        "114932.187000",
        "114933.211000",
        "114934.188000",
        "114935.216000",
        "114936.162000",
        "114937.155000",
        "114938.176000",
        "114939.150000",
        "114940.222000",
        "114941.185000",
        "114942.155000",
        "114943.154000",
        "114944.179000",
        "114945.138000",
        "114946.171000",
        "114947.157000",
        "114948.162000",
        "114949.175000",
        "114950.164000",
        "114951.143000",
        "114952.161000",
        "114953.161000",
        "114954.157000",
        "114955.164000",
        "114956.218000",
        "114957.171000",
        "114958.168000",
        "114959.208000",
        "115000.199000",
        "115001.226000",
        "115002.174000",
        "115003.159000",
        "115004.175000",
        "115005.201000",
        "115006.153000",
        "115007.162000",
        "115008.167000",
        "115009.141000",
        "115010.162000",
        "115011.171000",
        "115012.169000",
        "115013.175000",
        "115014.158000",
        "115015.180000",
        "115016.169000",
        "115017.188000",
        "115018.204000",
        "115019.192000",
        "115020.193000",
        "115021.195000",
        "115022.195000",
        "115023.189000",
        "115024.187000",
        "115025.182000",
        "115026.263000",
        "115027.168000",
        "115028.180000",
        "115029.199000",
        "115030.164000",
        "115031.161000",
        "115032.189000",
        "115033.148000",
        "115034.180000",
        "115035.172000",
        "115036.163000",
        "115037.182000",
        "115038.181000",
        "115039.153000",
        "115040.180000",
        "115041.171000",
        "115042.167000",
        "115043.206000",
        "115044.201000",
        "115045.188000",
        "115046.171000",
        "115047.156000",
        "115048.195000",
        "115049.174000",
        "115050.194000",
        "115051.214000",
        "115052.210000",
        "115053.190000",
        "115054.180000",
        "115055.176000",
        "115056.188000",
        "115057.175000",
        "115058.237000",
        "115059.223000",
        "115100.178000",
        "115101.198000",
        "115102.166000",
        "115103.185000",
        "115104.180000",
        "115105.193000",
        "115106.182000",
        "115107.188000",
        "115108.168000",
        "115109.162000",
        "115110.202000",
        "115111.230000",
        "115112.186000",
        "115113.188000",
        "115114.184000",
        "115115.198000",
        "115116.192000",
        "115117.167000",
        "115118.192000",
        "115119.182000",
        "115120.282000",
        "115121.176000",
        "115122.154000",
        "115123.182000",
        "115124.183000",
        "115125.204000",
        "115126.186000",
        "115127.179000",
        "115128.175000",
        "115129.199000",
        "115130.186000",
        "115131.187000",
        "115132.184000",
        "115133.171000",
        "115134.139000",
        "115135.192000",
        "115136.202000",
        "115137.171000",
        "115138.224000",
        "115139.201000",
        "115140.194000",
        "115141.156000",
        "115142.171000",
        "115143.177000",
        "115144.157000",
        "115145.182000",
        "115146.182000",
        "115147.179000",
        "115148.241000",
        "115149.154000",
        "115150.173000",
        "115151.172000",
        "115152.182000",
        "115153.176000",
        "115154.202000",
        "115155.171000",
        "115156.237000",
        "115157.217000",
        "115158.168000",
        "115159.215000",
        "115200.156000",
        "115201.179000",
        "115202.215000",
        "115203.175000",
        "115204.184000",
        "115205.149000",
        "115206.188000",
        "115207.179000",
        "115208.204000",
        "115209.170000",
        "115210.186000",
        "115211.194000",
        "115212.178000",
        "115213.156000",
        "115214.194000",
        "115215.160000",
        "115216.189000",
        "115217.170000",
        "115218.187000",
        "115219.181000",
        "115220.159000",
        "115221.196000",
        "115222.173000",
        "115223.185000",
        "115224.147000",
        "115225.166000",
        "115226.165000",
        "115227.170000",
        "115228.225000",
        "115229.228000",
        "115230.187000",
        "115231.171000",
        "115232.205000",
        "115233.187000",
        "115234.188000",
        "115235.177000",
        "115236.182000",
        "115237.189000",
        "115238.177000",
        "115239.194000",
        "115240.202000",
        "115241.190000",
        "115242.163000",
        "115243.171000",
        "115244.237000",
        "115245.157000",
        "115246.164000",
        "115247.177000",
        "115248.162000",
        "115249.199000",
        "115250.196000",
        "115251.183000",
        "115252.184000",
        "115253.179000",
        "115254.184000",
        "115255.165000",
        "115256.211000",
        "115257.198000",
        "115258.183000",
        "115259.163000",
        "115300.214000",
        "115301.185000",
        "115302.191000",
        "115303.175000",
        "115304.157000",
        "115305.184000",
        "115306.226000",
        "115307.184000",
        "115308.169000",
        "115309.180000",
        "115310.195000",
        "115311.163000",
        "115312.204000",
        "115313.175000",
        "115314.165000",
        "115315.189000",
        "115316.181000",
        "115317.176000",
        "115318.145000",
        "115319.185000",
        "115320.178000",
        "115321.209000",
        "115322.181000",
        "115323.179000",
        "115324.198000",
        "115325.183000",
        "115326.190000",
        "115327.186000",
        "115328.191000",
        "115329.180000",
        "115330.219000",
        "115331.189000",
        "115332.177000",
        "115333.182000",
        "115334.177000",
        "115335.164000",
        "115336.226000",
        "115337.196000",
        "115338.166000",
        "115339.192000",
        "115340.199000",
        "115341.167000",
        "115342.207000",
        "115343.210000",
        "115344.200000",
        "115345.145000",
        "115346.184000",
        "115347.188000",
        "115348.202000",
        "115349.153000",
        "115350.191000",
        "115351.167000",
        "115352.244000",
        "115353.178000",
        "115354.171000",
        "115355.168000",
        "115356.226000",
        "115357.187000",
        "115358.200000",
        "115359.147000",
        "115400.202000"
      ],
      "InstanceCreationTime": [
        "114913.347000",
        "114914.178000",
        "114915.183000",
        "114916.177000",
        "114917.147000",
        "114918.163000",
        "114919.168000",
        "114920.153000",
        "114921.131000",
        "114922.191000",
        "114923.179000",
        "114924.173000",
        "114925.163000",
        "114926.172000",
        "114927.177000",
        "114928.174000",
        "114929.160000",
        "114930.152000",
        "114931.238000",
        "114932.187000",
        "114933.211000",
        "114934.188000",
        "114935.216000",
        "114936.162000",
        "114937.155000",
        "114938.176000",
        "114939.150000",
        "114940.222000",
        "114941.185000",
        "114942.155000",
        "114943.154000",
        "114944.179000",
        "114945.138000",
        "114946.171000",
        "114947.157000",
        "114948.162000",
        "114949.175000",
        "114950.164000",
        "114951.143000",
        "114952.161000",
        "114953.161000",
        "114954.157000",
        "114955.164000",
        "114956.218000",
        "114957.171000",
        "114958.168000",
        "114959.208000",
        "115000.199000",
        "115001.226000",
        "115002.174000",
        "115003.159000",
        "115004.175000",
        "115005.201000",
        "115006.153000",
        "115007.162000",
        "115008.167000",
        "115009.141000",
        "115010.162000",
        "115011.171000",
        "115012.169000",
        "115013.175000",
        "115014.158000",
        "115015.180000",
        "115016.169000",
        "115017.188000",
        "115018.204000",
        "115019.192000",
        "115020.193000",
        "115021.195000",
        "115022.195000",
        "115023.189000",
        "115024.187000",
        "115025.182000",
        "115026.263000",
        "115027.168000",
        "115028.180000",
        "115029.199000",
        "115030.164000",
        "115031.161000",
        "115032.189000",
        "115033.148000",
        "115034.180000",
        "115035.172000",
        "115036.163000",
        "115037.182000",
        "115038.181000",
        "115039.153000",
        "115040.180000",
        "115041.171000",
        "115042.167000",
        "115043.206000",
        "115044.201000",
        "115045.188000",
        "115046.171000",
        "115047.156000",
        "115048.195000",
        "115049.174000",
        "115050.194000",
        "115051.214000",
        "115052.210000",
        "115053.190000",
        "115054.180000",
        "115055.176000",
        "115056.188000",
        "115057.175000",
        "115058.237000",
        "115059.223000",
        "115100.178000",
        "115101.198000",
        "115102.166000",
        "115103.185000",
        "115104.180000",
        "115105.193000",
        "115106.182000",
        "115107.188000",
        "115108.168000",
        "115109.162000",
        "115110.202000",
        "115111.230000",
        "115112.186000",
        "115113.188000",
        "115114.184000",
        "115115.198000",
        "115116.192000",
        "115117.167000",
        "115118.192000",
        "115119.182000",
        "115120.282000",
        "115121.176000",
        "115122.154000",
        "115123.182000",
        "115124.183000",
        "115125.204000",
        "115126.186000",
        "115127.179000",
        "115128.175000",
        "115129.199000",
        "115130.186000",
        "115131.187000",
        "115132.184000",
        "115133.171000",
        "115134.139000",
        "115135.192000",
        "115136.202000",
        "115137.171000",
        "115138.224000",
        "115139.201000",
        "115140.194000",
        "115141.156000",
        "115142.171000",
        "115143.177000",
        "115144.157000",
        "115145.182000",
        "115146.182000",
        "115147.179000",
        "115148.241000",
        "115149.154000",
        "115150.173000",
        "115151.172000",
        "115152.182000",
        "115153.176000",
        "115154.202000",
        "115155.171000",
        "115156.237000",
        "115157.217000",
        "115158.168000",
        "115159.215000",
        "115200.156000",
        "115201.179000",
        "115202.215000",
        "115203.175000",
        "115204.184000",
        "115205.149000",
        "115206.188000",
        "115207.179000",
        "115208.204000",
        "115209.170000",
        "115210.186000",
        "115211.194000",
        "115212.178000",
        "115213.156000",
        "115214.194000",
        "115215.160000",
        "115216.189000",
        "115217.170000",
        "115218.187000",
        "115219.181000",
        "115220.159000",
        "115221.196000",
        "115222.173000",
        "115223.185000",
        "115224.147000",
        "115225.166000",
        "115226.165000",
        "115227.170000",
        "115228.225000",
        "115229.228000",
        "115230.187000",
        "115231.171000",
        "115232.205000",
        "115233.187000",
        "115234.188000",
        "115235.177000",
        "115236.182000",
        "115237.189000",
        "115238.177000",
        "115239.194000",
        "115240.202000",
        "115241.190000",
        "115242.163000",
        "115243.171000",
        "115244.237000",
        "115245.157000",
        "115246.164000",
        "115247.177000",
        "115248.162000",
        "115249.199000",
        "115250.196000",
        "115251.183000",
        "115252.184000",
        "115253.179000",
        "115254.184000",
        "115255.165000",
        "115256.211000",
        "115257.198000",
        "115258.183000",
        "115259.163000",
        "115300.214000",
        "115301.185000",
        "115302.191000",
        "115303.175000",
        "115304.157000",
        "115305.184000",
        "115306.226000",
        "115307.184000",
        "115308.169000",
        "115309.180000",
        "115310.195000",
        "115311.163000",
        "115312.204000",
        "115313.175000",
        "115314.165000",
        "115315.189000",
        "115316.181000",
        "115317.176000",
        "115318.145000",
        "115319.185000",
        "115320.178000",
        "115321.209000",
        "115322.181000",
        "115323.179000",
        "115324.198000",
        "115325.183000",
        "115326.190000",
        "115327.186000",
        "115328.191000",
        "115329.180000",
        "115330.219000",
        "115331.189000",
        "115332.177000",
        "115333.182000",
        "115334.177000",
        "115335.164000",
        "115336.226000",
        "115337.196000",
        "115338.166000",
        "115339.192000",
        "115340.199000",
        "115341.167000",
        "115342.207000",
        "115343.210000",
        "115344.200000",
        "115345.145000",
        "115346.184000",
        "115347.188000",
        "115348.202000",
        "115349.153000",
        "115350.191000",
        "115351.167000",
        "115352.244000",
        "115353.178000",
        "115354.171000",
        "115355.168000",
        "115356.226000",
        "115357.187000",
        "115358.200000",
        "115359.147000",
        "115400.202000"
      ],
      "InstanceNumber": [
        1,
        2,
        3,
        4,
        5,
        6,
        7,
        8,
        9,
        10,
        11,
        12,
        13,
        14,
        15,
        16,
        17,
        18,
        19,
        20,
        21,
        22,
        23,
        24,
        25,
        26,
        27,
        28,
        29,
        30,
        31,
        32,
        33,
        34,
        35,
        36,
        37,
        38,
        39,
        40,
        41,
        42,
        43,
        44,
        45,
        46,
        47,
        48,
        49,
        50,
        51,
        52,
        53,
        54,
        55,
        56,
        57,
        58,
        59,
        60,
        61,
        62,
        63,
        64,
        65,
        66,
        67,
        68,
        69,
        70,
        71,
        72,
        73,
        74,
        75,
        76,
        77,
        78,
        79,
        80,
        81,
        82,
        83,
        84,
        85,
        86,
        87,
        88,
        89,
        90,
        91,
        92,
        93,
        94,
        95,
        96,
        97,
        98,
        99,
        100,
        101,
        102,
        103,
        104,
        105,
        106,
        107,
        108,
        109,
        110,
        111,
        112,
        113,
        114,
        115,
        116,
        117,
        118,
        119,
        120,
        121,
        122,
        123,
        124,
        125,
        126,
        127,
        128,
        129,
        130,
        131,
        132,
        133,
        134,
        135,
        136,
        137,
        138,
        139,
        140,
        141,
        142,
        143,
        144,
        145,
        146,
        147,
        148,
        149,
        150,
        151,
        152,
        153,
        154,
        155,
        156,
        157,
        158,
        159,
        160,
        161,
        162,
        163,
        164,
        165,
        166,
        167,
        168,
        169,
        170,
        171,
        172,
        173,
        174,
        175,
        176,
        177,
        178,
        179,
        180,
        181,
        182,
        183,
        184,
        185,
        186,
        187,
        188,
        189,
        190,
        191,
        192,
        193,
        194,
        195,
        196,
        197,
        198,
