{
  "AcquisitionMatrixPE": 96,
  "AcquisitionNumber": 1,
  "AcquisitionTime": "11:23:16.372500",
  "BandwidthPerPixelPhaseEncode": 18.939,
  "BaseResolution": 96,
  "BodyPartExamined": "BRAIN",
  "ConsistencyInfo": "N4_VE11C_LATEST_20160120",
  "ConversionSoftware": "dcm2niix",
  "ConversionSoftwareVersion": "v1.0.20171215 (OpenJPEG build) GCC6.3.0",
  "DerivedVendorReportedEchoSpacing": 0.000550011,
  "DeviceSerialNumber": "66112",
  "DwellTime": 2.2e-06,
  "EchoTime": 0.033,
  "EchoTrainLength": 96,
  "EffectiveEchoSpacing": 0.000550011,
  "FlipAngle": 59,
  "ImageOrientationPatientDICOM": [
    0.997804,
    0.0376825,
    0.0544664,
    -0.0290912,
    0.98815,
    -0.150709
  ],
  "ImageType": [
    "ORIGINAL",
    "PRIMARY",
    "FMRI",
    "NONE",
    "ND",
    "NORM",
    "MOSAIC"
  ],
  "InPlanePhaseEncodingDirectionDICOM": "COL",
  "InstitutionAddress": "Maynard_3_Hanover_NH_US_03755",
  "InstitutionName": "Dartmouth_College_-_PBS",
  "InstitutionalDepartmentName": "Department",
  "MRAcquisitionType": "2D",
  "MagneticFieldStrength": 3,
  "Manufacturer": "Siemens",
  "ManufacturersModelName": "Prisma",
  "Modality": "MR",
  "MultibandAccelerationFactor": 4,
  "PatientPosition": "HFS",
  "PercentPhaseFOV": 100,
  "PhaseEncodingDirection": "j-",
  "PhaseEncodingSteps": 96,
  "PhaseResolution": 1,
  "PixelBandwidth": 2365,
  "ProcedureStepDescription": "Gobbini_Matteo_1038_hyperface",
  "ProtocolName": "func_run-04_task-visualmemory",
  "PulseSequenceDetails": "%SiemensSeq%_ep2d_bold",
  "ReceiveCoilActiveElements": "HEA;HEP",
  "ReceiveCoilName": "Head_32",
  "ReconMatrixPE": 96,
  "RepetitionTime": 1,
  "SAR": 0.0506095,
  "ScanOptions": "FS",
  "ScanningSequence": "EP",
  "SequenceName": "_epfid2d1_96",
  "SequenceVariant": "SK",
  "SeriesDescription": "func_run-04_task-visualmemory",
  "SeriesNumber": 28,
  "ShimSetting": [
    4146,
    -7686,
    -7320,
    721,
    -33,
    -135,
    -83,
    61
  ],
  "SliceThickness": 2.5,
  "SliceTiming": [
    0.735,
    0,
    0.49,
    0.08,
    0.57,
    0.1625,
    0.6525,
    0.325,
    0.815,
    0.4075,
    0.8975,
    0.245,
    0.735,
    0,
    0.49,
    0.08,
    0.57,
    0.1625,
    0.6525,
    0.325,
    0.815,
    0.4075,
    0.8975,
    0.245,
    0.735,
    0,
    0.49,
    0.08,
    0.57,
    0.1625,
    0.6525,
    0.325,
    0.815,
    0.4075,
    0.8975,
    0.245,
    0.735,
    0,
    0.49,
    0.08,
    0.57,
    0.1625,
    0.6525,
    0.325,
    0.815,
    0.4075,
    0.8975,
    0.245
  ],
  "SoftwareVersions": "syngo_MR_E11",
  "SpacingBetweenSlices": 2.5,
  "StationName": "AWP66112",
  "TotalReadoutTime": 0.0522511,
  "TxRefAmp": 234.056,
  "dcmmeta_affine": [
    [
      -2.4945108890533447,
      -0.07272811979055405,
      0.1487501561641693,
      123.3690414428711
    ],
    [
      -0.09420626610517502,
      2.4703750610351562,
      -0.37198492884635925,
      -100.51276397705078
    ],
    [
      0.13616596162319183,
      0.3767734467983246,
      2.467691421508789,
      -94.41930389404297
    ],
    [
      0.0,
      0.0,
      0.0,
      1.0
    ]
  ],
  "dcmmeta_reorient_transform": [
    [
      0.0,
      -1.0,
      0.0,
      95.0
    ],
    [
      1.0,
      0.0,
      0.0,
      0.0
    ],
    [
      0.0,
      0.0,
      1.0,
      0.0
    ],
    [
      0.0,
      0.0,
      0.0,
      1.0
    ]
  ],
  "dcmmeta_shape": [
    96,
    96,
    48,
    288
  ],
  "dcmmeta_slice_dim": 2,
  "dcmmeta_version": 0.6,
  "global": {
    "const": {
      "AccessionNumber": "A001340",
      "AcquisitionMatrix": [
        96,
        0,
        0,
        96
      ],
      "AngioFlag": "N",
      "BitsAllocated": 16,
      "BitsStored": 12,
      "BodyPartExamined": "BRAIN",
      "Columns": 672,
      "EchoNumbers": 1,
      "EchoTime": 33.0,
      "EchoTrainLength": 96,
      "FlipAngle": 59.0,
      "HighBit": 11,
      "ImageOrientationPatient": [
        0.99780431020281,
        0.03768250512379,
        0.05446638732555,
        -0.0290912465089,
        0.98814997946375,
        -0.1507093808041
      ],
      "ImagePositionPatient": [
        -813.93327365853,
        -872.77224409241,
        10.669126728986
      ],
      "ImageType": [
        "ORIGINAL",
        "PRIMARY",
        "FMRI",
        "NONE",
        "ND",
        "NORM",
        "MOSAIC"
      ],
      "ImagedNucleus": "1H",
      "ImagingFrequency": 123.252299,
      "InPlanePhaseEncodingDirection": "COL",
      "MRAcquisitionType": "2D",
      "MagneticFieldStrength": 3.0,
      "Manufacturer": "SIEMENS",
      "ManufacturerModelName": "Prisma",
      "Modality": "MR",
      "NumberOfAverages": 1.0,
      "NumberOfPhaseEncodingSteps": 96,
      "PercentPhaseFieldOfView": 100.0,
      "PercentSampling": 100.0,
      "PerformedProcedureStepStartTime": "105554.137000",
      "PhotometricInterpretation": "MONOCHROME2",
      "PixelBandwidth": 2365.0,
      "PixelRepresentation": 0,
      "PixelSpacing": [
        2.5,
        2.5
      ],
      "PositionReferenceIndicator": "",
      "ProtocolName": "func_run-04_task-visualmemory",
      "RepetitionTime": 1000.0,
      "Rows": 672,
      "SAR": 0.05060948682152,
      "SamplesPerPixel": 1,
      "ScanOptions": "FS",
      "ScanningSequence": "EP",
      "SequenceName": "*epfid2d1_96",
      "SequenceVariant": "SK",
      "SeriesDescription": "func_run-04_task-visualmemory",
      "SeriesNumber": 28,
      "SeriesTime": "112317.229000",
      "SliceLocation": -70.902922538338,
      "SliceThickness": 2.5,
      "SmallestImagePixelValue": 0,
      "SoftwareVersions": "syngo MR E11",
      "SpacingBetweenSlices": 2.4999999527747,
      "SpecificCharacterSet": "ISO_IR 100",
      "StudyID": "3",
      "StudyTime": "105554.052000",
      "TransmitCoilName": "Body",
      "VariableFlipAngleFlag": "N",
      "WindowCenterWidthExplanation": "Algo1",
      "dBdt": 0.0
    },
    "slices": {}
  },
  "time": {
    "samples": {
      "AcquisitionNumber": [
        1,
        2,
        3,
        4,
        5,
        6,
        7,
        8,
        9,
        10,
        11,
        12,
        13,
        14,
        15,
        16,
        17,
        18,
        19,
        20,
        21,
        22,
        23,
        24,
        25,
        26,
        27,
        28,
        29,
        30,
        31,
        32,
        33,
        34,
        35,
        36,
        37,
        38,
        39,
        40,
        41,
        42,
        43,
        44,
        45,
        46,
        47,
        48,
        49,
        50,
        51,
        52,
        53,
        54,
        55,
        56,
        57,
        58,
        59,
        60,
        61,
        62,
        63,
        64,
        65,
        66,
        67,
        68,
        69,
        70,
        71,
        72,
        73,
        74,
        75,
        76,
        77,
        78,
        79,
        80,
        81,
        82,
        83,
        84,
        85,
        86,
        87,
        88,
        89,
        90,
        91,
        92,
        93,
        94,
        95,
        96,
        97,
        98,
        99,
        100,
        101,
        102,
        103,
        104,
        105,
        106,
        107,
        108,
        109,
        110,
        111,
        112,
        113,
        114,
        115,
        116,
        117,
        118,
        119,
        120,
        121,
        122,
        123,
        124,
        125,
        126,
        127,
        128,
        129,
        130,
        131,
        132,
        133,
        134,
        135,
        136,
        137,
        138,
        139,
        140,
        141,
        142,
        143,
        144,
        145,
        146,
        147,
        148,
        149,
        150,
        151,
        152,
        153,
        154,
        155,
        156,
        157,
        158,
        159,
        160,
        161,
        162,
        163,
        164,
        165,
        166,
        167,
        168,
        169,
        170,
        171,
        172,
        173,
        174,
        175,
        176,
        177,
        178,
        179,
        180,
        181,
        182,
        183,
        184,
        185,
        186,
        187,
        188,
        189,
        190,
        191,
        192,
        193,
        194,
        195,
        196,
        197,
        198,
        199,
        200,
        201,
        202,
        203,
        204,
        205,
        206,
        207,
        208,
        209,
        210,
        211,
        212,
        213,
        214,
        215,
        216,
        217,
        218,
        219,
        220,
        221,
        222,
        223,
        224,
        225,
        226,
        227,
        228,
        229,
        230,
        231,
        232,
        233,
        234,
        235,
        236,
        237,
        238,
        239,
        240,
        241,
        242,
        243,
        244,
        245,
        246,
        247,
        248,
        249,
        250,
        251,
        252,
        253,
        254,
        255,
        256,
        257,
        258,
        259,
        260,
        261,
        262,
        263,
        264,
        265,
        266,
        267,
        268,
        269,
        270,
        271,
        272,
        273,
        274,
        275,
        276,
        277,
        278,
        279,
        280,
        281,
        282,
        283,
        284,
        285,
        286,
        287,
        288
      ],
      "AcquisitionTime": [
        "112316.372500",
        "112317.372500",
        "112318.372500",
        "112319.372500",
        "112320.372500",
        "112321.372500",
        "112322.372500",
        "112323.372500",
        "112324.372500",
        "112325.372500",
        "112326.372500",
        "112327.372500",
        "112328.372500",
        "112329.372500",
        "112330.372500",
        "112331.372500",
        "112332.372500",
        "112333.372500",
        "112334.372500",
        "112335.372500",
        "112336.372500",
        "112337.372500",
        "112338.372500",
        "112339.372500",
        "112340.372500",
        "112341.372500",
        "112342.372500",
        "112343.372500",
        "112344.372500",
        "112345.372500",
        "112346.372500",
        "112347.372500",
        "112348.372500",
        "112349.372500",
        "112350.372500",
        "112351.372500",
        "112352.372500",
        "112353.372500",
        "112354.372500",
        "112355.372500",
        "112356.372500",
        "112357.372500",
        "112358.372500",
        "112359.372500",
        "112400.372500",
        "112401.372500",
        "112402.372500",
        "112403.372500",
        "112404.372500",
        "112405.372500",
        "112406.372500",
        "112407.372500",
        "112408.372500",
        "112409.372500",
        "112410.372500",
        "112411.372500",
        "112412.372500",
        "112413.372500",
        "112414.372500",
        "112415.372500",
        "112416.372500",
        "112417.372500",
        "112418.372500",
        "112419.372500",
        "112420.372500",
        "112421.372500",
        "112422.372500",
        "112423.372500",
        "112424.372500",
        "112425.372500",
        "112426.372500",
        "112427.372500",
        "112428.372500",
        "112429.372500",
        "112430.372500",
        "112431.372500",
        "112432.372500",
        "112433.372500",
        "112434.372500",
        "112435.372500",
        "112436.372500",
        "112437.372500",
        "112438.372500",
        "112439.372500",
        "112440.372500",
        "112441.372500",
        "112442.372500",
        "112443.372500",
        "112444.372500",
        "112445.372500",
        "112446.372500",
        "112447.372500",
        "112448.372500",
        "112449.372500",
        "112450.372500",
        "112451.372500",
        "112452.372500",
        "112453.372500",
        "112454.372500",
        "112455.372500",
        "112456.372500",
        "112457.372500",
        "112458.372500",
        "112459.372500",
        "112500.372500",
        "112501.372500",
        "112502.372500",
        "112503.372500",
        "112504.372500",
        "112505.372500",
        "112506.372500",
        "112507.372500",
        "112508.372500",
        "112509.372500",
        "112510.372500",
        "112511.372500",
        "112512.372500",
        "112513.372500",
        "112514.372500",
        "112515.372500",
        "112516.372500",
        "112517.372500",
        "112518.372500",
        "112519.372500",
        "112520.372500",
        "112521.372500",
        "112522.372500",
        "112523.372500",
        "112524.372500",
        "112525.372500",
        "112526.372500",
        "112527.372500",
        "112528.372500",
        "112529.372500",
        "112530.372500",
        "112531.372500",
        "112532.372500",
        "112533.372500",
        "112534.372500",
        "112535.372500",
        "112536.372500",
        "112537.372500",
        "112538.372500",
        "112539.372500",
        "112540.372500",
        "112541.372500",
        "112542.372500",
        "112543.372500",
        "112544.372500",
        "112545.372500",
        "112546.372500",
        "112547.372500",
        "112548.372500",
        "112549.372500",
        "112550.372500",
        "112551.372500",
        "112552.372500",
        "112553.372500",
        "112554.372500",
        "112555.372500",
        "112556.372500",
        "112557.372500",
        "112558.372500",
        "112559.372500",
        "112600.372500",
        "112601.372500",
        "112602.372500",
        "112603.372500",
        "112604.372500",
        "112605.372500",
        "112606.372500",
        "112607.372500",
        "112608.372500",
        "112609.372500",
        "112610.372500",
        "112611.372500",
        "112612.372500",
        "112613.372500",
        "112614.372500",
        "112615.372500",
        "112616.372500",
        "112617.372500",
        "112618.372500",
        "112619.372500",
        "112620.372500",
        "112621.372500",
        "112622.372500",
        "112623.372500",
        "112624.372500",
        "112625.372500",
        "112626.372500",
        "112627.372500",
        "112628.372500",
        "112629.372500",
        "112630.372500",
        "112631.372500",
        "112632.372500",
        "112633.372500",
        "112634.372500",
        "112635.372500",
        "112636.372500",
        "112637.372500",
        "112638.372500",
        "112639.372500",
        "112640.372500",
        "112641.372500",
        "112642.372500",
        "112643.372500",
        "112644.372500",
        "112645.372500",
        "112646.372500",
        "112647.372500",
        "112648.372500",
        "112649.372500",
        "112650.372500",
        "112651.372500",
        "112652.372500",
        "112653.372500",
        "112654.372500",
        "112655.372500",
        "112656.372500",
        "112657.372500",
        "112658.372500",
        "112659.372500",
        "112700.372500",
        "112701.372500",
        "112702.372500",
        "112703.372500",
        "112704.372500",
        "112705.372500",
        "112706.372500",
        "112707.372500",
        "112708.372500",
        "112709.372500",
        "112710.372500",
        "112711.372500",
        "112712.372500",
        "112713.372500",
        "112714.372500",
        "112715.372500",
        "112716.372500",
        "112717.372500",
        "112718.372500",
        "112719.372500",
        "112720.372500",
        "112721.372500",
        "112722.372500",
        "112723.372500",
        "112724.372500",
        "112725.372500",
        "112726.372500",
        "112727.372500",
        "112728.372500",
        "112729.372500",
        "112730.372500",
        "112731.372500",
        "112732.372500",
        "112733.372500",
        "112734.372500",
        "112735.372500",
        "112736.372500",
        "112737.372500",
        "112738.372500",
        "112739.372500",
        "112740.372500",
        "112741.372500",
        "112742.372500",
        "112743.372500",
        "112744.372500",
        "112745.372500",
        "112746.372500",
        "112747.372500",
        "112748.372500",
        "112749.372500",
        "112750.372500",
        "112751.372500",
        "112752.372500",
        "112753.372500",
        "112754.372500",
        "112755.372500",
        "112756.372500",
        "112757.372500",
        "112758.372500",
        "112759.372500",
        "112800.372500",
        "112801.372500",
        "112802.372500",
        "112803.372500"
      ],
      "ContentTime": [
        "112317.232000",
        "112318.031000",
        "112319.018000",
        "112320.010000",
        "112321.030000",
        "112322.008000",
        "112323.052000",
        "112324.021000",
        "112325.016000",
        "112326.009000",
        "112327.016000",
        "112328.005000",
        "112329.001000",
        "112330.016000",
        "112331.008000",
        "112332.010000",
        "112332.999000",
        "112334.045000",
        "112335.016000",
        "112336.017000",
        "112337.031000",
        "112338.026000",
        "112339.041000",
        "112340.029000",
        "112341.016000",
        "112342.013000",
        "112343.025000",
        "112344.020000",
        "112345.029000",
        "112346.000000",
        "112347.019000",
        "112348.023000",
        "112349.072000",
        "112350.011000",
        "112351.018000",
        "112352.025000",
        "112353.029000",
        "112354.014000",
        "112355.011000",
        "112355.994000",
        "112357.009000",
        "112358.021000",
        "112359.025000",
        "112400.034000",
        "112401.010000",
        "112402.010000",
        "112402.998000",
        "112404.036000",
        "112404.991000",
        "112406.013000",
        "112407.003000",
        "112408.013000",
        "112409.008000",
        "112410.036000",
        "112411.034000",
        "112412.023000",
        "112413.022000",
        "112414.007000",
        "112415.011000",
        "112416.008000",
        "112417.016000",
        "112418.019000",
        "112419.062000",
        "112420.028000",
        "112421.059000",
        "112422.012000",
        "112423.020000",
        "112424.019000",
        "112425.005000",
        "112426.034000",
        "112427.027000",
        "112428.023000",
        "112429.001000",
        "112430.016000",
        "112431.051000",
        "112432.010000",
        "112433.010000",
        "112434.026000",
        "112435.003000",
        "112436.021000",
        "112437.003000",
        "112438.024000",
        "112439.024000",
        "112440.032000",
        "112441.025000",
        "112442.031000",
        "112442.993000",
        "112444.013000",
        "112445.032000",
        "112446.008000",
        "112447.008000",
        "112448.056000",
        "112449.021000",
        "112450.017000",
        "112451.003000",
        "112452.004000",
        "112453.050000",
        "112453.994000",
        "112455.037000",
        "112456.006000",
        "112457.017000",
        "112458.022000",
        "112459.029000",
        "112500.032000",
        "112501.001000",
        "112502.008000",
        "112503.024000",
        "112504.021000",
        "112505.035000",
        "112505.981000",
        "112507.046000",
        "112508.012000",
        "112508.975000",
        "112510.023000",
        "112511.003000",
        "112512.031000",
        "112513.019000",
        "112514.007000",
        "112515.016000",
        "112516.018000",
        "112517.010000",
        "112518.026000",
        "112519.042000",
        "112520.014000",
        "112521.020000",
        "112522.023000",
        "112523.031000",
        "112524.015000",
        "112525.013000",
        "112526.011000",
        "112527.029000",
        "112528.065000",
        "112529.031000",
        "112530.048000",
        "112531.045000",
        "112532.007000",
        "112533.045000",
        "112534.033000",
        "112535.006000",
        "112536.015000",
        "112537.010000",
        "112538.002000",
        "112539.037000",
        "112540.039000",
        "112540.969000",
        "112542.029000",
        "112542.991000",
        "112544.042000",
        "112545.044000",
        "112546.007000",
        "112547.014000",
        "112548.028000",
        "112549.022000",
        "112550.018000",
        "112551.057000",
        "112552.026000",
        "112553.064000",
        "112554.016000",
        "112554.984000",
        "112556.027000",
        "112557.019000",
        "112558.019000",
        "112559.011000",
        "112600.004000",
        "112601.058000",
        "112602.012000",
        "112603.021000",
        "112604.049000",
        "112605.000000",
        "112606.009000",
        "112607.010000",
        "112608.019000",
        "112609.032000",
        "112610.039000",
        "112611.048000",
        "112612.039000",
        "112613.008000",
        "112614.024000",
        "112615.004000",
        "112616.028000",
        "112617.011000",
        "112618.002000",
        "112619.022000",
        "112620.011000",
        "112621.017000",
        "112622.042000",
        "112623.035000",
        "112624.018000",
        "112625.006000",
        "112626.012000",
        "112627.049000",
        "112628.023000",
        "112629.033000",
        "112630.012000",
        "112631.029000",
        "112632.017000",
        "112633.032000",
        "112634.024000",
        "112635.054000",
        "112636.030000",
        "112637.061000",
        "112638.015000",
        "112638.979000",
        "112640.043000",
        "112641.002000",
        "112642.015000",
        "112643.041000",
        "112644.026000",
        "112645.030000",
        "112646.021000",
        "112647.016000",
        "112648.030000",
        "112649.006000",
        "112650.009000",
        "112651.037000",
        "112652.024000",
        "112653.015000",
        "112654.033000",
        "112655.035000",
        "112656.030000",
        "112657.033000",
        "112658.018000",
        "112659.031000",
        "112700.020000",
        "112700.992000",
        "112702.027000",
        "112703.033000",
        "112704.012000",
        "112705.051000",
        "112706.041000",
        "112707.033000",
        "112707.986000",
        "112709.037000",
        "112710.035000",
        "112711.010000",
        "112712.025000",
        "112713.021000",
        "112714.015000",
        "112715.024000",
        "112716.024000",
        "112717.036000",
        "112718.022000",
        "112719.007000",
        "112720.024000",
        "112721.011000",
        "112722.012000",
        "112723.012000",
        "112724.032000",
        "112725.050000",
        "112726.019000",
        "112727.010000",
        "112728.030000",
        "112729.012000",
        "112730.032000",
        "112731.041000",
        "112732.029000",
        "112733.008000",
        "112734.025000",
        "112735.043000",
        "112736.013000",
        "112737.012000",
        "112738.023000",
        "112739.019000",
        "112740.037000",
        "112741.001000",
        "112742.020000",
        "112743.012000",
        "112744.028000",
        "112745.024000",
        "112746.042000",
        "112747.037000",
        "112747.988000",
        "112749.017000",
        "112750.020000",
        "112751.025000",
        "112752.028000",
        "112753.023000",
        "112754.017000",
        "112755.069000",
        "112756.043000",
        "112757.024000",
        "112758.025000",
        "112759.010000",
        "112800.008000",
        "112801.065000",
        "112802.032000",
        "112803.028000",
        "112804.043000"
      ],
      "InstanceCreationTime": [
        "112317.232000",
        "112318.031000",
        "112319.018000",
        "112320.010000",
        "112321.030000",
        "112322.008000",
        "112323.052000",
        "112324.021000",
        "112325.016000",
        "112326.009000",
        "112327.016000",
        "112328.005000",
        "112329.001000",
        "112330.016000",
        "112331.008000",
        "112332.010000",
        "112332.999000",
        "112334.045000",
        "112335.016000",
        "112336.017000",
        "112337.031000",
        "112338.026000",
        "112339.041000",
        "112340.029000",
        "112341.016000",
        "112342.013000",
        "112343.025000",
        "112344.020000",
        "112345.029000",
        "112346.000000",
        "112347.019000",
        "112348.023000",
        "112349.072000",
        "112350.011000",
        "112351.018000",
        "112352.025000",
        "112353.029000",
        "112354.014000",
        "112355.011000",
        "112355.994000",
        "112357.009000",
        "112358.021000",
        "112359.025000",
        "112400.034000",
        "112401.010000",
        "112402.010000",
        "112402.998000",
        "112404.036000",
        "112404.991000",
        "112406.013000",
        "112407.003000",
        "112408.013000",
        "112409.008000",
        "112410.036000",
        "112411.034000",
        "112412.023000",
        "112413.022000",
        "112414.007000",
        "112415.011000",
        "112416.008000",
        "112417.016000",
        "112418.019000",
        "112419.062000",
        "112420.028000",
        "112421.059000",
        "112422.012000",
        "112423.020000",
        "112424.019000",
        "112425.005000",
        "112426.034000",
        "112427.027000",
        "112428.023000",
        "112429.001000",
        "112430.016000",
        "112431.051000",
        "112432.010000",
        "112433.010000",
        "112434.026000",
        "112435.003000",
        "112436.021000",
        "112437.003000",
        "112438.024000",
        "112439.024000",
        "112440.032000",
        "112441.025000",
        "112442.031000",
        "112442.993000",
        "112444.013000",
        "112445.032000",
        "112446.008000",
        "112447.008000",
        "112448.056000",
        "112449.021000",
        "112450.017000",
        "112451.003000",
        "112452.004000",
        "112453.050000",
        "112453.994000",
        "112455.037000",
        "112456.006000",
        "112457.017000",
        "112458.022000",
        "112459.029000",
        "112500.032000",
        "112501.001000",
        "112502.008000",
        "112503.024000",
        "112504.021000",
        "112505.035000",
        "112505.981000",
        "112507.046000",
        "112508.012000",
        "112508.975000",
        "112510.023000",
        "112511.003000",
        "112512.031000",
        "112513.019000",
        "112514.007000",
        "112515.016000",
        "112516.018000",
        "112517.010000",
        "112518.026000",
        "112519.042000",
        "112520.014000",
        "112521.020000",
        "112522.023000",
        "112523.031000",
        "112524.015000",
        "112525.013000",
        "112526.011000",
        "112527.029000",
        "112528.065000",
        "112529.031000",
        "112530.048000",
        "112531.045000",
        "112532.007000",
        "112533.045000",
        "112534.033000",
        "112535.006000",
        "112536.015000",
        "112537.010000",
        "112538.002000",
        "112539.037000",
        "112540.039000",
        "112540.969000",
        "112542.029000",
        "112542.991000",
        "112544.042000",
        "112545.044000",
        "112546.007000",
        "112547.014000",
        "112548.028000",
        "112549.022000",
        "112550.018000",
        "112551.057000",
        "112552.026000",
        "112553.064000",
        "112554.016000",
        "112554.984000",
        "112556.027000",
        "112557.019000",
        "112558.019000",
        "112559.011000",
        "112600.004000",
        "112601.058000",
        "112602.012000",
        "112603.021000",
        "112604.049000",
        "112605.000000",
        "112606.009000",
        "112607.010000",
        "112608.019000",
        "112609.032000",
        "112610.039000",
        "112611.048000",
        "112612.039000",
        "112613.008000",
        "112614.024000",
        "112615.004000",
        "112616.028000",
        "112617.011000",
        "112618.002000",
        "112619.022000",
        "112620.011000",
        "112621.017000",
        "112622.042000",
        "112623.035000",
        "112624.018000",
        "112625.006000",
        "112626.012000",
        "112627.049000",
        "112628.023000",
        "112629.033000",
        "112630.012000",
        "112631.029000",
        "112632.017000",
        "112633.032000",
        "112634.024000",
        "112635.054000",
        "112636.030000",
        "112637.061000",
        "112638.015000",
        "112638.979000",
        "112640.043000",
        "112641.002000",
        "112642.015000",
        "112643.041000",
        "112644.026000",
        "112645.030000",
        "112646.021000",
        "112647.016000",
        "112648.030000",
        "112649.006000",
        "112650.009000",
        "112651.037000",
        "112652.024000",
        "112653.015000",
        "112654.033000",
        "112655.035000",
        "112656.030000",
        "112657.033000",
        "112658.018000",
        "112659.031000",
        "112700.020000",
        "112700.992000",
        "112702.027000",
        "112703.033000",
        "112704.012000",
        "112705.051000",
        "112706.041000",
        "112707.033000",
        "112707.986000",
        "112709.037000",
        "112710.035000",
        "112711.010000",
