{
  "AcquisitionMatrixPE": 96,
  "AcquisitionNumber": 1,
  "AcquisitionTime": "11:28:30.547500",
  "BandwidthPerPixelPhaseEncode": 18.939,
  "BaseResolution": 96,
  "BodyPartExamined": "BRAIN",
  "ConsistencyInfo": "N4_VE11C_LATEST_20160120",
  "ConversionSoftware": "dcm2niix",
  "ConversionSoftwareVersion": "v1.0.20171215 (OpenJPEG build) GCC6.3.0",
  "DerivedVendorReportedEchoSpacing": 0.000550011,
  "DeviceSerialNumber": "66112",
  "DwellTime": 2.2e-06,
  "EchoTime": 0.033,
  "EchoTrainLength": 96,
  "EffectiveEchoSpacing": 0.000550011,
  "FlipAngle": 59,
  "ImageOrientationPatientDICOM": [
    0.997804,
    0.0376825,
    0.0544664,
    -0.0290912,
    0.98815,
    -0.150709
  ],
  "ImageType": [
    "ORIGINAL",
    "PRIMARY",
    "FMRI",
    "NONE",
    "ND",
    "NORM",
    "MOSAIC"
  ],
  "InPlanePhaseEncodingDirectionDICOM": "COL",
  "InstitutionAddress": "Maynard_3_Hanover_NH_US_03755",
  "InstitutionName": "Dartmouth_College_-_PBS",
  "InstitutionalDepartmentName": "Department",
  "MRAcquisitionType": "2D",
  "MagneticFieldStrength": 3,
  "Manufacturer": "Siemens",
  "ManufacturersModelName": "Prisma",
  "Modality": "MR",
  "MultibandAccelerationFactor": 4,
  "PatientPosition": "HFS",
  "PercentPhaseFOV": 100,
  "PhaseEncodingDirection": "j-",
  "PhaseEncodingSteps": 96,
  "PhaseResolution": 1,
  "PixelBandwidth": 2365,
  "ProcedureStepDescription": "Gobbini_Matteo_1038_hyperface",
  "ProtocolName": "func_run-05_task-localizer",
  "PulseSequenceDetails": "%SiemensSeq%_ep2d_bold",
  "ReceiveCoilActiveElements": "HEA;HEP",
  "ReceiveCoilName": "Head_32",
  "ReconMatrixPE": 96,
  "RepetitionTime": 1,
  "SAR": 0.0504885,
  "ScanOptions": "FS",
  "ScanningSequence": "EP",
  "SequenceName": "_epfid2d1_96",
  "SequenceVariant": "SK",
  "SeriesDescription": "func_run-05_task-localizer",
  "SeriesNumber": 35,
  "ShimSetting": [
    4146,
    -7686,
    -7320,
    721,
    -33,
    -135,
    -83,
    61
  ],
  "SliceThickness": 2.5,
  "SliceTiming": [
    0.735,
    0,
    0.49,
    0.0825,
    0.5725,
    0.165,
    0.655,
    0.3275,
    0.8175,
    0.41,
    0.9,
    0.245,
    0.735,
    0,
    0.49,
    0.0825,
    0.5725,
    0.165,
    0.655,
    0.3275,
    0.8175,
    0.41,
    0.9,
    0.245,
    0.735,
    0,
    0.49,
    0.0825,
    0.5725,
    0.165,
    0.655,
    0.3275,
    0.8175,
    0.41,
    0.9,
    0.245,
    0.735,
    0,
    0.49,
    0.0825,
    0.5725,
    0.165,
    0.655,
    0.3275,
    0.8175,
    0.41,
    0.9,
    0.245
  ],
  "SoftwareVersions": "syngo_MR_E11",
  "SpacingBetweenSlices": 2.5,
  "StationName": "AWP66112",
  "TotalReadoutTime": 0.0522511,
  "TxRefAmp": 234.056,
  "dcmmeta_affine": [
    [
      -2.4945108890533447,
      -0.07272811979055405,
      0.1487501561641693,
      123.3690414428711
    ],
    [
      -0.09420626610517502,
      2.4703750610351562,
      -0.37198492884635925,
      -100.51276397705078
    ],
    [
      0.13616596162319183,
      0.3767734467983246,
      2.467691421508789,
      -94.41930389404297
    ],
    [
      0.0,
      0.0,
      0.0,
      1.0
    ]
  ],
  "dcmmeta_reorient_transform": [
    [
      0.0,
      -1.0,
      0.0,
      95.0
    ],
    [
      1.0,
      0.0,
      0.0,
      0.0
    ],
    [
      0.0,
      0.0,
      1.0,
      0.0
    ],
    [
      0.0,
      0.0,
      0.0,
      1.0
    ]
  ],
  "dcmmeta_shape": [
    96,
    96,
    48,
    236
  ],
  "dcmmeta_slice_dim": 2,
  "dcmmeta_version": 0.6,
  "global": {
    "const": {
      "AccessionNumber": "A001340",
      "AcquisitionMatrix": [
        96,
        0,
        0,
        96
      ],
      "AngioFlag": "N",
      "BitsAllocated": 16,
      "BitsStored": 12,
      "BodyPartExamined": "BRAIN",
      "Columns": 672,
      "EchoNumbers": 1,
      "EchoTime": 33.0,
      "EchoTrainLength": 96,
      "FlipAngle": 59.0,
      "HighBit": 11,
      "ImageOrientationPatient": [
        0.99780431020281,
        0.03768250512379,
        0.05446638732555,
        -0.0290912465089,
        0.98814997946375,
        -0.1507093808041
      ],
      "ImagePositionPatient": [
        -813.93327365853,
        -872.77224409241,
        10.669126728986
      ],
      "ImageType": [
        "ORIGINAL",
        "PRIMARY",
        "FMRI",
        "NONE",
        "ND",
        "NORM",
        "MOSAIC"
      ],
      "ImagedNucleus": "1H",
      "ImagingFrequency": 123.252301,
      "InPlanePhaseEncodingDirection": "COL",
      "MRAcquisitionType": "2D",
      "MagneticFieldStrength": 3.0,
      "Manufacturer": "SIEMENS",
      "ManufacturerModelName": "Prisma",
      "Modality": "MR",
      "NumberOfAverages": 1.0,
      "NumberOfPhaseEncodingSteps": 96,
      "PercentPhaseFieldOfView": 100.0,
      "PercentSampling": 100.0,
      "PerformedProcedureStepStartTime": "105554.137000",
      "PhotometricInterpretation": "MONOCHROME2",
      "PixelBandwidth": 2365.0,
      "PixelRepresentation": 0,
      "PixelSpacing": [
        2.5,
        2.5
      ],
      "PositionReferenceIndicator": "",
      "ProtocolName": "func_run-05_task-localizer",
      "RepetitionTime": 1000.0,
      "Rows": 672,
      "SAR": 0.05048847460173,
      "SamplesPerPixel": 1,
      "ScanOptions": "FS",
      "ScanningSequence": "EP",
      "SequenceName": "*epfid2d1_96",
      "SequenceVariant": "SK",
      "SeriesDescription": "func_run-05_task-localizer",
      "SeriesNumber": 35,
      "SeriesTime": "112831.961000",
      "SliceLocation": -70.902922538338,
      "SliceThickness": 2.5,
      "SmallestImagePixelValue": 0,
      "SoftwareVersions": "syngo MR E11",
      "SpacingBetweenSlices": 2.4999999527747,
      "SpecificCharacterSet": "ISO_IR 100",
      "StudyID": "3",
      "StudyTime": "105554.052000",
      "TransmitCoilName": "Body",
      "VariableFlipAngleFlag": "N",
      "WindowCenterWidthExplanation": "Algo1",
      "dBdt": 0.0
    },
    "slices": {}
  },
  "time": {
    "samples": {
      "AcquisitionNumber": [
        1,
        2,
        3,
        4,
        5,
        6,
        7,
        8,
        9,
        10,
        11,
        12,
        13,
        14,
        15,
        16,
        17,
        18,
        19,
        20,
        21,
        22,
        23,
        24,
        25,
        26,
        27,
        28,
        29,
        30,
        31,
        32,
        33,
        34,
        35,
        36,
        37,
        38,
        39,
        40,
        41,
        42,
        43,
        44,
        45,
        46,
        47,
        48,
        49,
        50,
        51,
        52,
        53,
        54,
        55,
        56,
        57,
        58,
        59,
        60,
        61,
        62,
        63,
        64,
        65,
        66,
        67,
        68,
        69,
        70,
        71,
        72,
        73,
        74,
        75,
        76,
        77,
        78,
        79,
        80,
        81,
        82,
        83,
        84,
        85,
        86,
        87,
        88,
        89,
        90,
        91,
        92,
        93,
        94,
        95,
        96,
        97,
        98,
        99,
        100,
        101,
        102,
        103,
        104,
        105,
        106,
        107,
        108,
        109,
        110,
        111,
        112,
        113,
        114,
        115,
        116,
        117,
        118,
        119,
        120,
        121,
        122,
        123,
        124,
        125,
        126,
        127,
        128,
        129,
        130,
        131,
        132,
        133,
        134,
        135,
        136,
        137,
        138,
        139,
        140,
        141,
        142,
        143,
        144,
        145,
        146,
        147,
        148,
        149,
        150,
        151,
        152,
        153,
        154,
        155,
        156,
        157,
        158,
        159,
        160,
        161,
        162,
        163,
        164,
        165,
        166,
        167,
        168,
        169,
        170,
        171,
        172,
        173,
        174,
        175,
        176,
        177,
        178,
        179,
        180,
        181,
        182,
        183,
        184,
        185,
        186,
        187,
        188,
        189,
        190,
        191,
        192,
        193,
        194,
        195,
        196,
        197,
        198,
        199,
        200,
        201,
        202,
        203,
        204,
        205,
        206,
        207,
        208,
        209,
        210,
        211,
        212,
        213,
        214,
        215,
        216,
        217,
        218,
        219,
        220,
        221,
        222,
        223,
        224,
        225,
        226,
        227,
        228,
        229,
        230,
        231,
        232,
        233,
        234,
        235,
        236
      ],
      "AcquisitionTime": [
        "112830.547500",
        "112831.547500",
        "112832.547500",
        "112833.547500",
        "112834.547500",
        "112835.547500",
        "112836.547500",
        "112837.547500",
        "112838.547500",
        "112839.547500",
        "112840.547500",
        "112841.547500",
        "112842.547500",
        "112843.547500",
        "112844.547500",
        "112845.547500",
        "112846.547500",
        "112847.547500",
        "112848.547500",
        "112849.547500",
        "112850.547500",
        "112851.547500",
        "112852.547500",
        "112853.547500",
        "112854.547500",
        "112855.547500",
        "112856.547500",
        "112857.547500",
        "112858.547500",
        "112859.547500",
        "112900.547500",
        "112901.547500",
        "112902.547500",
        "112903.547500",
        "112904.547500",
        "112905.547500",
        "112906.547500",
        "112907.547500",
        "112908.547500",
        "112909.547500",
        "112910.547500",
        "112911.547500",
        "112912.547500",
        "112913.547500",
        "112914.547500",
        "112915.547500",
        "112916.547500",
        "112917.547500",
        "112918.547500",
        "112919.547500",
        "112920.547500",
        "112921.547500",
        "112922.547500",
        "112923.547500",
        "112924.547500",
        "112925.547500",
        "112926.547500",
        "112927.547500",
        "112928.547500",
        "112929.547500",
        "112930.547500",
        "112931.547500",
        "112932.547500",
        "112933.547500",
        "112934.547500",
        "112935.547500",
        "112936.547500",
        "112937.547500",
        "112938.547500",
        "112939.547500",
        "112940.547500",
        "112941.547500",
        "112942.547500",
        "112943.547500",
        "112944.547500",
        "112945.547500",
        "112946.547500",
        "112947.547500",
        "112948.547500",
        "112949.547500",
        "112950.547500",
        "112951.547500",
        "112952.547500",
        "112953.547500",
        "112954.547500",
        "112955.547500",
        "112956.547500",
        "112957.547500",
        "112958.547500",
        "112959.547500",
        "113000.547500",
        "113001.547500",
        "113002.547500",
        "113003.547500",
        "113004.547500",
        "113005.547500",
        "113006.547500",
        "113007.547500",
        "113008.547500",
        "113009.547500",
        "113010.547500",
        "113011.547500",
        "113012.547500",
        "113013.547500",
        "113014.547500",
        "113015.547500",
        "113016.547500",
        "113017.547500",
        "113018.547500",
        "113019.547500",
        "113020.547500",
        "113021.547500",
        "113022.547500",
        "113023.547500",
        "113024.547500",
        "113025.547500",
        "113026.547500",
        "113027.547500",
        "113028.547500",
        "113029.547500",
        "113030.547500",
        "113031.547500",
        "113032.547500",
        "113033.547500",
        "113034.547500",
        "113035.547500",
        "113036.547500",
        "113037.547500",
        "113038.547500",
        "113039.547500",
        "113040.547500",
        "113041.547500",
        "113042.547500",
        "113043.547500",
        "113044.547500",
        "113045.547500",
        "113046.547500",
        "113047.547500",
        "113048.547500",
        "113049.547500",
        "113050.547500",
        "113051.547500",
        "113052.547500",
        "113053.547500",
        "113054.547500",
        "113055.547500",
        "113056.547500",
        "113057.547500",
        "113058.547500",
        "113059.547500",
        "113100.547500",
        "113101.547500",
        "113102.547500",
        "113103.547500",
        "113104.547500",
        "113105.547500",
        "113106.547500",
        "113107.547500",
        "113108.547500",
        "113109.547500",
        "113110.547500",
        "113111.547500",
        "113112.547500",
        "113113.547500",
        "113114.547500",
        "113115.547500",
        "113116.547500",
        "113117.547500",
        "113118.547500",
        "113119.547500",
        "113120.547500",
        "113121.547500",
        "113122.547500",
        "113123.547500",
        "113124.547500",
        "113125.547500",
        "113126.547500",
        "113127.547500",
        "113128.547500",
        "113129.547500",
        "113130.547500",
        "113131.547500",
        "113132.547500",
        "113133.547500",
        "113134.547500",
        "113135.547500",
        "113136.547500",
        "113137.547500",
        "113138.547500",
        "113139.547500",
        "113140.547500",
        "113141.547500",
        "113142.547500",
        "113143.547500",
        "113144.547500",
        "113145.547500",
        "113146.547500",
        "113147.547500",
        "113148.547500",
        "113149.547500",
        "113150.547500",
        "113151.547500",
        "113152.547500",
        "113153.547500",
        "113154.547500",
        "113155.547500",
        "113156.547500",
        "113157.547500",
        "113158.547500",
        "113159.547500",
        "113200.547500",
        "113201.547500",
        "113202.547500",
        "113203.547500",
        "113204.547500",
        "113205.547500",
        "113206.547500",
        "113207.547500",
        "113208.547500",
        "113209.547500",
        "113210.547500",
        "113211.547500",
        "113212.547500",
        "113213.547500",
        "113214.547500",
        "113215.547500",
        "113216.547500",
        "113217.547500",
        "113218.547500",
        "113219.547500",
        "113220.547500",
        "113221.547500",
        "113222.547500",
        "113223.547500",
        "113224.547500",
        "113225.547500"
      ],
      "ContentTime": [
        "112831.965000",
        "112832.802000",
        "112833.771000",
        "112834.770000",
        "112835.781000",
        "112836.800000",
        "112837.806000",
        "112838.795000",
        "112839.794000",
        "112840.811000",
        "112841.788000",
        "112842.774000",
        "112843.821000",
        "112844.807000",
        "112845.769000",
        "112846.796000",
        "112847.803000",
        "112848.796000",
        "112849.809000",
        "112850.788000",
        "112851.798000",
        "112852.797000",
        "112853.804000",
        "112854.789000",
        "112855.823000",
        "112856.786000",
        "112857.793000",
        "112858.778000",
        "112859.803000",
        "112900.788000",
        "112901.809000",
        "112902.822000",
        "112903.803000",
        "112904.786000",
        "112905.777000",
        "112906.785000",
        "112907.805000",
        "112908.779000",
        "112909.775000",
        "112910.793000",
        "112911.805000",
        "112912.817000",
        "112913.795000",
        "112914.812000",
        "112915.786000",
        "112916.792000",
        "112917.789000",
        "112918.815000",
        "112919.830000",
        "112920.788000",
        "112921.830000",
        "112922.875000",
        "112923.781000",
        "112924.881000",
        "112925.775000",
        "112926.802000",
        "112927.777000",
        "112928.813000",
        "112929.821000",
        "112930.795000",
        "112931.789000",
        "112932.772000",
        "112933.796000",
        "112934.798000",
        "112935.808000",
        "112936.764000",
        "112937.799000",
        "112938.809000",
        "112939.779000",
        "112940.787000",
        "112941.763000",
        "112942.787000",
        "112943.787000",
        "112944.780000",
        "112945.798000",
        "112946.786000",
        "112947.790000",
        "112948.766000",
        "112949.794000",
        "112950.870000",
        "112951.800000",
        "112952.811000",
        "112953.800000",
        "112954.785000",
        "112955.795000",
        "112956.770000",
        "112957.789000",
        "112958.802000",
        "112959.802000",
        "113000.790000",
        "113001.803000",
        "113002.812000",
        "113003.793000",
        "113004.791000",
        "113005.834000",
        "113006.901000",
        "113007.773000",
        "113008.784000",
        "113009.808000",
        "113010.810000",
        "113011.818000",
        "113012.804000",
        "113013.786000",
        "113014.794000",
        "113015.783000",
        "113016.821000",
        "113017.811000",
        "113018.803000",
        "113019.817000",
        "113020.810000",
        "113021.786000",
        "113022.800000",
        "113023.781000",
        "113024.807000",
        "113025.786000",
        "113026.782000",
        "113027.816000",
        "113028.808000",
        "113029.829000",
        "113030.802000",
        "113031.801000",
        "113032.790000",
        "113033.815000",
        "113034.807000",
        "113035.819000",
        "113036.810000",
        "113037.788000",
        "113038.810000",
        "113039.798000",
        "113040.789000",
        "113041.789000",
        "113042.806000",
        "113043.797000",
        "113044.826000",
        "113045.790000",
        "113046.810000",
        "113047.806000",
        "113048.798000",
        "113049.788000",
        "113050.804000",
        "113051.775000",
        "113052.792000",
        "113053.817000",
        "113054.796000",
        "113055.795000",
        "113056.832000",
        "113057.793000",
        "113058.797000",
        "113059.792000",
        "113100.819000",
        "113101.811000",
        "113102.827000",
        "113103.808000",
        "113104.772000",
        "113105.793000",
        "113106.826000",
        "113107.781000",
        "113108.817000",
        "113109.810000",
        "113110.804000",
        "113111.782000",
        "113112.785000",
        "113113.791000",
        "113114.808000",
        "113115.798000",
        "113116.800000",
        "113117.849000",
        "113118.807000",
        "113119.776000",
        "113120.791000",
        "113121.801000",
        "113122.779000",
        "113123.802000",
        "113124.787000",
        "113125.787000",
        "113126.788000",
        "113127.813000",
        "113128.787000",
        "113129.803000",
        "113130.796000",
        "113131.814000",
        "113132.801000",
        "113133.782000",
        "113134.804000",
        "113135.776000",
        "113136.796000",
        "113137.801000",
        "113138.790000",
        "113139.797000",
        "113140.798000",
        "113141.807000",
        "113142.810000",
        "113143.799000",
        "113144.799000",
        "113145.809000",
        "113146.808000",
        "113147.813000",
        "113148.797000",
        "113149.765000",
        "113150.808000",
        "113151.811000",
        "113152.821000",
        "113153.791000",
        "113154.815000",
        "113155.809000",
        "113156.797000",
        "113157.807000",
        "113158.825000",
        "113159.882000",
        "113200.789000",
        "113201.800000",
        "113202.796000",
        "113203.774000",
        "113204.803000",
        "113205.767000",
        "113206.776000",
        "113207.796000",
        "113208.795000",
        "113209.819000",
        "113210.804000",
        "113211.805000",
        "113212.795000",
        "113213.837000",
        "113214.789000",
        "113215.774000",
        "113216.794000",
        "113217.801000",
        "113218.776000",
        "113219.802000",
        "113220.821000",
        "113221.833000",
        "113222.786000",
        "113223.775000",
        "113224.790000",
        "113225.804000",
        "113226.829000"
      ],
      "InstanceCreationTime": [
        "112831.965000",
        "112832.802000",
        "112833.771000",
        "112834.770000",
        "112835.781000",
        "112836.800000",
        "112837.806000",
        "112838.795000",
        "112839.794000",
        "112840.811000",
        "112841.788000",
        "112842.774000",
        "112843.821000",
        "112844.807000",
        "112845.769000",
        "112846.796000",
        "112847.803000",
        "112848.796000",
        "112849.809000",
        "112850.788000",
        "112851.798000",
        "112852.797000",
        "112853.804000",
        "112854.789000",
        "112855.823000",
        "112856.786000",
        "112857.793000",
        "112858.778000",
        "112859.803000",
        "112900.788000",
        "112901.809000",
        "112902.822000",
        "112903.803000",
        "112904.786000",
        "112905.777000",
        "112906.785000",
        "112907.805000",
        "112908.779000",
        "112909.775000",
        "112910.793000",
        "112911.805000",
        "112912.817000",
        "112913.795000",
        "112914.812000",
        "112915.786000",
        "112916.792000",
        "112917.789000",
        "112918.815000",
        "112919.830000",
        "112920.788000",
        "112921.830000",
        "112922.875000",
        "112923.781000",
        "112924.881000",
        "112925.775000",
        "112926.802000",
        "112927.777000",
        "112928.813000",
        "112929.821000",
        "112930.795000",
        "112931.789000",
        "112932.772000",
        "112933.796000",
        "112934.798000",
        "112935.808000",
        "112936.764000",
        "112937.799000",
        "112938.809000",
        "112939.779000",
        "112940.787000",
        "112941.763000",
        "112942.787000",
        "112943.787000",
        "112944.780000",
        "112945.798000",
        "112946.786000",
        "112947.790000",
        "112948.766000",
        "112949.794000",
        "112950.870000",
        "112951.800000",
        "112952.811000",
        "112953.800000",
        "112954.785000",
        "112955.795000",
        "112956.770000",
        "112957.789000",
        "112958.802000",
        "112959.802000",
        "113000.790000",
        "113001.803000",
        "113002.812000",
        "113003.793000",
        "113004.791000",
        "113005.834000",
        "113006.901000",
        "113007.773000",
        "113008.784000",
        "113009.808000",
        "113010.810000",
        "113011.818000",
        "113012.804000",
        "113013.786000",
        "113014.794000",
        "113015.783000",
        "113016.821000",
        "113017.811000",
        "113018.803000",
        "113019.817000",
        "113020.810000",
        "113021.786000",
        "113022.800000",
        "113023.781000",
        "113024.807000",
        "113025.786000",
        "113026.782000",
        "113027.816000",
        "113028.808000",
        "113029.829000",
        "113030.802000",
        "113031.801000",
        "113032.790000",
        "113033.815000",
        "113034.807000",
        "113035.819000",
        "113036.810000",
        "113037.788000",
        "113038.810000",
        "113039.798000",
        "113040.789000",
        "113041.789000",
        "113042.806000",
        "113043.797000",
        "113044.826000",
        "113045.790000",
        "113046.810000",
        "113047.806000",
        "113048.798000",
        "113049.788000",
        "113050.804000",
        "113051.775000",
        "113052.792000",
        "113053.817000",
        "113054.796000",
        "113055.795000",
        "113056.832000",
        "113057.793000",
        "113058.797000",
        "113059.792000",
        "113100.819000",
        "113101.811000",
        "113102.827000",
        "113103.808000",
        "113104.772000",
        "113105.793000",
        "113106.826000",
        "113107.781000",
        "113108.817000",
        "113109.810000",
        "113110.804000",
        "113111.782000",
        "113112.785000",
        "113113.791000",
        "113114.808000",
        "113115.798000",
        "113116.800000",
        "113117.849000",
        "113118.807000",
        "113119.776000",
        "113120.791000",
        "113121.801000",
        "113122.779000",
        "113123.802000",
        "113124.787000",
        "113125.787000",
        "113126.788000",
        "113127.813000",
        "113128.787000",
        "113129.803000",
        "113130.796000",
        "113131.814000",
        "113132.801000",
        "113133.782000",
        "113134.804000",
        "113135.776000",
        "113136.796000",
        "113137.801000",
        "113138.790000",
        "113139.797000",
        "113140.798000",
        "113141.807000",
        "113142.810000",
        "113143.799000",
        "113144.799000",
        "113145.809000",
        "113146.808000",
        "113147.813000",
        "113148.797000",
        "113149.765000",
        "113150.808000",
        "113151.811000",
        "113152.821000",
        "113153.791000",
        "113154.815000",
        "113155.809000",
        "113156.797000",
        "113157.807000",
        "113158.825000",
        "113159.882000",
        "113200.789000",
        "113201.800000",
        "113202.796000",
        "113203.774000",
        "113204.803000",
        "113205.767000",
        "113206.776000",
        "113207.796000",
        "113208.795000",
        "113209.819000",
        "113210.804000",
        "113211.805000",
        "113212.795000",
        "113213.837000",
        "113214.789000",
        "113215.774000",
        "113216.794000",
        "113217.801000",
        "113218.776000",
        "113219.802000",
        "113220.821000",
        "113221.833000",
        "113222.786000",
        "113223.775000",
        "113224.790000",
        "113225.804000",
        "113226.829000"
      ],
      "InstanceNumber": [
        1,
        2,
        3,
        4,
        5,
        6,
        7,
        8,
        9,
        10,
        11,
        12,
        13,
        14,
        15,
        16,
        17,
        18,
        19,
        20,
        21,
        22,
        23,
        24,
        25,
        26,
        27,
        28,
        29,
        30,
        31,
        32,
        33,
        34,
        35,
        36,
        37,
        38,
        39,
        40,
        41,
        42,
        43,
        44,
        45,
        46,
        47,
        48,
        49,
        50,
        51,
        52,
        53,
        54,
        55,
        56,
        57,
        58,
        59,
        60,
        61,
        62,
        63,
        64,
        65,
        66,
        67,
        68,
        69,
        70,
        71,
        72,
        73,
        74,
        75,
        76,
        77,
        78,
        79,
        80,
        81,
        82,
        83,
        84,
        85,
        86,
        87,
        88,
        89,
        90,
        91,
        92,
        93,
        94,
        95,
        96,
        97,
        98,
        99,
        100,
        101,
        102,
        103,
        104,
        105,
        106,
        107,
        108,
        109,
        110,
        111,
        112,
        113,
        114,
        115,
        116,
        117,
        118,
        119,
        120,
        121,
        122,
        123,
        124,
        125,
        126,
        127,
        128,
        129,
        130,
        131,
        132,
        133,
        134,
        135,
        136,
        137,
        138,
        139,
        140,
        141,
        142,
        143,
        144,
        145,
        146,
        147,
        148,
        149,
        150,
        151,
        152,
        153,
        154,
        155,
        156,
        157,
        158,
        159,
        160,
        161,
        162,
        163,
        164,
        165,
        166,
        167,
        168,
        169,
        170,
        171,
        172,
        173,
        174,
        175,
        176,
        177,
        178,
        179,
        180,
        181,
        182,
        183,
        184,
        185,
        186,
        187,
        188,
        189,
        190,
        191,
        192,
        193,
        194,
        195,
        196,
        197,
        198,
        199,
        200,
        201,
        202,
        203,
        204,
        205,
        206,
        207,
        208,
        209,
        210,
        211,
        212,
        213,
        214,
        215,
        216,
        217,
        218,
        219,
        220,
        221,
        222,
        223,
        224,
        225,
        226,
        227,
        228,
        229,
        230,
        231,
        232,
        233,
        234,
        235,
        236
      ],
      "LargestImagePixelValue": [
        1081,
        1318,
        1056,
        1185,
        869,
        662,
        761,
        1022,
        682,
        766,
        678,
        680,
        870,
        1239,
        772,
        665,
        1020,
        701,
