{
  "AcquisitionMatrixPE": 96,
  "AcquisitionNumber": 1,
  "AcquisitionTime": "10:44:58.362500",
  "BandwidthPerPixelPhaseEncode": 18.939,
  "BaseResolution": 96,
  "BodyPartExamined": "BRAIN",
  "ConsistencyInfo": "N4_VE11C_LATEST_20160120",
  "ConversionSoftware": "dcm2niix",
  "ConversionSoftwareVersion": "v1.0.20171215 (OpenJPEG build) GCC6.3.0",
  "DerivedVendorReportedEchoSpacing": 0.000550011,
  "DeviceSerialNumber": "66112",
  "DwellTime": 2.2e-06,
  "EchoTime": 0.033,
  "EchoTrainLength": 96,
  "EffectiveEchoSpacing": 0.000550011,
  "FlipAngle": 59,
  "ImageOrientationPatientDICOM": [
    0.997692,
    0.0505205,
    -0.0453606,
    -0.0536838,
    0.995998,
    -0.0714622
  ],
  "ImageType": [
    "ORIGINAL",
    "PRIMARY",
    "FMRI",
    "NONE",
    "ND",
    "NORM",
    "MOSAIC"
  ],
  "InPlanePhaseEncodingDirectionDICOM": "COL",
  "InstitutionAddress": "Maynard_3_Hanover_NH_US_03755",
  "InstitutionName": "Dartmouth_College_-_PBS",
  "InstitutionalDepartmentName": "Department",
  "MRAcquisitionType": "2D",
  "MagneticFieldStrength": 3,
  "Manufacturer": "Siemens",
  "ManufacturersModelName": "Prisma",
  "Modality": "MR",
  "MultibandAccelerationFactor": 4,
  "PatientPosition": "HFS",
  "PercentPhaseFOV": 100,
  "PhaseEncodingDirection": "j-",
  "PhaseEncodingSteps": 96,
  "PhaseResolution": 1,
  "PixelBandwidth": 2365,
  "ProcedureStepDescription": "Gobbini_Matteo_1038_hyperface",
  "ProtocolName": "func_run-04_task-visualmemory",
  "PulseSequenceDetails": "%SiemensSeq%_ep2d_bold",
  "ReceiveCoilActiveElements": "HEA;HEP",
  "ReceiveCoilName": "Head_32",
  "ReconMatrixPE": 96,
  "RepetitionTime": 1,
  "SAR": 0.0492923,
  "ScanOptions": "FS",
  "ScanningSequence": "EP",
  "SequenceName": "_epfid2d1_96",
  "SequenceVariant": "SK",
  "SeriesDescription": "func_run-04_task-visualmemory",
  "SeriesNumber": 28,
  "ShimSetting": [
    4131,
    -7693,
    -7292,
    670,
    -11,
    -54,
    65,
    94
  ],
  "SliceThickness": 2.5,
  "SliceTiming": [
    0.735,
    0,
    0.49,
    0.0825,
    0.5725,
    0.1625,
    0.6525,
    0.3275,
    0.8175,
    0.4075,
    0.8975,
    0.245,
    0.735,
    0,
    0.49,
    0.0825,
    0.5725,
    0.1625,
    0.6525,
    0.3275,
    0.8175,
    0.4075,
    0.8975,
    0.245,
    0.735,
    0,
    0.49,
    0.0825,
    0.5725,
    0.1625,
    0.6525,
    0.3275,
    0.8175,
    0.4075,
    0.8975,
    0.245,
    0.735,
    0,
    0.49,
    0.0825,
    0.5725,
    0.1625,
    0.6525,
    0.3275,
    0.8175,
    0.4075,
    0.8975,
    0.245
  ],
  "SoftwareVersions": "syngo_MR_E11",
  "SpacingBetweenSlices": 2.5,
  "StationName": "AWP66112",
  "TotalReadoutTime": 0.0522511,
  "TxRefAmp": 259.734,
  "dcmmeta_affine": [
    [
      -2.4942309856414795,
      -0.13420946896076202,
      -0.10392171889543533,
      130.73768615722656
    ],
    [
      -0.1263013631105423,
      2.4899940490722656,
      -0.18433110415935516,
      -99.98025512695312
    ],
    [
      -0.1134013757109642,
      0.17865554988384247,
      2.491028308868408,
      -77.36064910888672
    ],
    [
      0.0,
      0.0,
      0.0,
      1.0
    ]
  ],
  "dcmmeta_reorient_transform": [
    [
      0.0,
      -1.0,
      0.0,
      95.0
    ],
    [
      1.0,
      0.0,
      0.0,
      0.0
    ],
    [
      0.0,
      0.0,
      1.0,
      0.0
    ],
    [
      0.0,
      0.0,
      0.0,
      1.0
    ]
  ],
  "dcmmeta_shape": [
    96,
    96,
    48,
    288
  ],
  "dcmmeta_slice_dim": 2,
  "dcmmeta_version": 0.6,
  "global": {
    "const": {
      "AccessionNumber": "A001345",
      "AcquisitionMatrix": [
        96,
        0,
        0,
        96
      ],
      "AngioFlag": "N",
      "BitsAllocated": 16,
      "BitsStored": 12,
      "BodyPartExamined": "BRAIN",
      "Columns": 672,
      "EchoNumbers": 1,
      "EchoTime": 33.0,
      "EchoTrainLength": 96,
      "FlipAngle": 59.0,
      "HighBit": 11,
      "ImageOrientationPatient": [
        0.99769238499028,
        0.0505205455783,
        -0.0453605490144,
        -0.0536837888293,
        0.99599759120535,
        -0.0714622216984
      ],
      "ImagePositionPatient": [
        -797.67397021448,
        -890.06222964162,
        23.724022906555
      ],
      "ImageType": [
        "ORIGINAL",
        "PRIMARY",
        "FMRI",
        "NONE",
        "ND",
        "NORM",
        "MOSAIC"
      ],
      "ImagedNucleus": "1H",
      "ImagingFrequency": 123.252314,
      "InPlanePhaseEncodingDirection": "COL",
      "MRAcquisitionType": "2D",
      "MagneticFieldStrength": 3.0,
      "Manufacturer": "SIEMENS",
      "ManufacturerModelName": "Prisma",
      "Modality": "MR",
      "NumberOfAverages": 1.0,
      "NumberOfPhaseEncodingSteps": 96,
      "PercentPhaseFieldOfView": 100.0,
      "PercentSampling": 100.0,
      "PerformedProcedureStepStartTime": "101956.908000",
      "PhotometricInterpretation": "MONOCHROME2",
      "PixelBandwidth": 2365.0,
      "PixelRepresentation": 0,
      "PixelSpacing": [
        2.5,
        2.5
      ],
      "PositionReferenceIndicator": "",
      "ProtocolName": "func_run-04_task-visualmemory",
      "RepetitionTime": 1000.0,
      "Rows": 672,
      "SAR": 0.0492922837967,
      "SamplesPerPixel": 1,
      "ScanOptions": "FS",
      "ScanningSequence": "EP",
      "SequenceName": "*epfid2d1_96",
      "SequenceVariant": "SK",
      "SeriesDescription": "func_run-04_task-visualmemory",
      "SeriesNumber": 28,
      "SeriesTime": "104459.548000",
      "SliceLocation": -75.145834508731,
      "SliceThickness": 2.5,
      "SmallestImagePixelValue": 0,
      "SoftwareVersions": "syngo MR E11",
      "SpacingBetweenSlices": 2.4999999524808,
      "SpecificCharacterSet": "ISO_IR 100",
      "StudyID": "3",
      "StudyTime": "101956.857000",
      "TransmitCoilName": "Body",
      "VariableFlipAngleFlag": "N",
      "WindowCenterWidthExplanation": "Algo1",
      "dBdt": 0.0
    },
    "slices": {}
  },
  "time": {
    "samples": {
      "AcquisitionNumber": [
        1,
        2,
        3,
        4,
        5,
        6,
        7,
        8,
        9,
        10,
        11,
        12,
        13,
        14,
        15,
        16,
        17,
        18,
        19,
        20,
        21,
        22,
        23,
        24,
        25,
        26,
        27,
        28,
        29,
        30,
        31,
        32,
        33,
        34,
        35,
        36,
        37,
        38,
        39,
        40,
        41,
        42,
        43,
        44,
        45,
        46,
        47,
        48,
        49,
        50,
        51,
        52,
        53,
        54,
        55,
        56,
        57,
        58,
        59,
        60,
        61,
        62,
        63,
        64,
        65,
        66,
        67,
        68,
        69,
        70,
        71,
        72,
        73,
        74,
        75,
        76,
        77,
        78,
        79,
        80,
        81,
        82,
        83,
        84,
        85,
        86,
        87,
        88,
        89,
        90,
        91,
        92,
        93,
        94,
        95,
        96,
        97,
        98,
        99,
        100,
        101,
        102,
        103,
        104,
        105,
        106,
        107,
        108,
        109,
        110,
        111,
        112,
        113,
        114,
        115,
        116,
        117,
        118,
        119,
        120,
        121,
        122,
        123,
        124,
        125,
        126,
        127,
        128,
        129,
        130,
        131,
        132,
        133,
        134,
        135,
        136,
        137,
        138,
        139,
        140,
        141,
        142,
        143,
        144,
        145,
        146,
        147,
        148,
        149,
        150,
        151,
        152,
        153,
        154,
        155,
        156,
        157,
        158,
        159,
        160,
        161,
        162,
        163,
        164,
        165,
        166,
        167,
        168,
        169,
        170,
        171,
        172,
        173,
        174,
        175,
        176,
        177,
        178,
        179,
        180,
        181,
        182,
        183,
        184,
        185,
        186,
        187,
        188,
        189,
        190,
        191,
        192,
        193,
        194,
        195,
        196,
        197,
        198,
        199,
        200,
        201,
        202,
        203,
        204,
        205,
        206,
        207,
        208,
        209,
        210,
        211,
        212,
        213,
        214,
        215,
        216,
        217,
        218,
        219,
        220,
        221,
        222,
        223,
        224,
        225,
        226,
        227,
        228,
        229,
        230,
        231,
        232,
        233,
        234,
        235,
        236,
        237,
        238,
        239,
        240,
        241,
        242,
        243,
        244,
        245,
        246,
        247,
        248,
        249,
        250,
        251,
        252,
        253,
        254,
        255,
        256,
        257,
        258,
        259,
        260,
        261,
        262,
        263,
        264,
        265,
        266,
        267,
        268,
        269,
        270,
        271,
        272,
        273,
        274,
        275,
        276,
        277,
        278,
        279,
        280,
        281,
        282,
        283,
        284,
        285,
        286,
        287,
        288
      ],
      "AcquisitionTime": [
        "104458.362500",
        "104459.362500",
        "104500.362500",
        "104501.362500",
        "104502.362500",
        "104503.362500",
        "104504.362500",
        "104505.362500",
        "104506.362500",
        "104507.362500",
        "104508.362500",
        "104509.362500",
        "104510.362500",
        "104511.362500",
        "104512.362500",
        "104513.362500",
        "104514.362500",
        "104515.362500",
        "104516.362500",
        "104517.362500",
        "104518.362500",
        "104519.362500",
        "104520.362500",
        "104521.362500",
        "104522.362500",
        "104523.362500",
        "104524.362500",
        "104525.362500",
        "104526.362500",
        "104527.362500",
        "104528.362500",
        "104529.362500",
        "104530.362500",
        "104531.362500",
        "104532.362500",
        "104533.362500",
        "104534.362500",
        "104535.362500",
        "104536.362500",
        "104537.362500",
        "104538.362500",
        "104539.362500",
        "104540.362500",
        "104541.362500",
        "104542.362500",
        "104543.362500",
        "104544.362500",
        "104545.362500",
        "104546.362500",
        "104547.362500",
        "104548.362500",
        "104549.362500",
        "104550.362500",
        "104551.362500",
        "104552.362500",
        "104553.362500",
        "104554.362500",
        "104555.362500",
        "104556.362500",
        "104557.362500",
        "104558.362500",
        "104559.362500",
        "104600.362500",
        "104601.362500",
        "104602.362500",
        "104603.362500",
        "104604.362500",
        "104605.362500",
        "104606.362500",
        "104607.362500",
        "104608.362500",
        "104609.362500",
        "104610.362500",
        "104611.362500",
        "104612.362500",
        "104613.362500",
        "104614.362500",
        "104615.362500",
        "104616.362500",
        "104617.362500",
        "104618.362500",
        "104619.362500",
        "104620.362500",
        "104621.362500",
        "104622.362500",
        "104623.362500",
        "104624.362500",
        "104625.362500",
        "104626.362500",
        "104627.362500",
        "104628.362500",
        "104629.362500",
        "104630.362500",
        "104631.362500",
        "104632.362500",
        "104633.362500",
        "104634.362500",
        "104635.362500",
        "104636.362500",
        "104637.362500",
        "104638.362500",
        "104639.362500",
        "104640.362500",
        "104641.362500",
        "104642.362500",
        "104643.362500",
        "104644.362500",
        "104645.362500",
        "104646.362500",
        "104647.362500",
        "104648.362500",
        "104649.362500",
        "104650.362500",
        "104651.362500",
        "104652.362500",
        "104653.362500",
        "104654.362500",
        "104655.362500",
        "104656.362500",
        "104657.362500",
        "104658.362500",
        "104659.362500",
        "104700.362500",
        "104701.362500",
        "104702.362500",
        "104703.362500",
        "104704.362500",
        "104705.362500",
        "104706.362500",
        "104707.362500",
        "104708.362500",
        "104709.362500",
        "104710.362500",
        "104711.362500",
        "104712.362500",
        "104713.362500",
        "104714.362500",
        "104715.362500",
        "104716.362500",
        "104717.362500",
        "104718.362500",
        "104719.362500",
        "104720.362500",
        "104721.362500",
        "104722.362500",
        "104723.362500",
        "104724.362500",
        "104725.362500",
        "104726.362500",
        "104727.362500",
        "104728.362500",
        "104729.362500",
        "104730.362500",
        "104731.362500",
        "104732.362500",
        "104733.362500",
        "104734.362500",
        "104735.362500",
        "104736.362500",
        "104737.362500",
        "104738.362500",
        "104739.362500",
        "104740.362500",
        "104741.362500",
        "104742.362500",
        "104743.362500",
        "104744.362500",
        "104745.362500",
        "104746.362500",
        "104747.362500",
        "104748.362500",
        "104749.362500",
        "104750.362500",
        "104751.362500",
        "104752.362500",
        "104753.362500",
        "104754.362500",
        "104755.362500",
        "104756.362500",
        "104757.362500",
        "104758.362500",
        "104759.362500",
        "104800.362500",
        "104801.362500",
        "104802.362500",
        "104803.362500",
        "104804.362500",
        "104805.362500",
        "104806.362500",
        "104807.362500",
        "104808.362500",
        "104809.362500",
        "104810.362500",
        "104811.362500",
        "104812.362500",
        "104813.362500",
        "104814.362500",
        "104815.362500",
        "104816.362500",
        "104817.362500",
        "104818.362500",
        "104819.362500",
        "104820.362500",
        "104821.362500",
        "104822.362500",
        "104823.362500",
        "104824.362500",
        "104825.362500",
        "104826.362500",
        "104827.362500",
        "104828.362500",
        "104829.362500",
        "104830.362500",
        "104831.362500",
        "104832.362500",
        "104833.362500",
        "104834.362500",
        "104835.362500",
        "104836.362500",
        "104837.362500",
        "104838.362500",
        "104839.362500",
        "104840.362500",
        "104841.362500",
        "104842.362500",
        "104843.362500",
        "104844.362500",
        "104845.362500",
        "104846.362500",
        "104847.362500",
        "104848.362500",
        "104849.362500",
        "104850.362500",
        "104851.362500",
        "104852.362500",
        "104853.362500",
        "104854.362500",
        "104855.362500",
        "104856.362500",
        "104857.362500",
        "104858.362500",
        "104859.362500",
        "104900.362500",
        "104901.362500",
        "104902.362500",
        "104903.362500",
        "104904.362500",
        "104905.362500",
        "104906.362500",
        "104907.362500",
        "104908.362500",
        "104909.362500",
        "104910.362500",
        "104911.362500",
        "104912.362500",
        "104913.362500",
        "104914.362500",
        "104915.362500",
        "104916.362500",
        "104917.362500",
        "104918.362500",
        "104919.362500",
        "104920.362500",
        "104921.362500",
        "104922.362500",
        "104923.362500",
        "104924.362500",
        "104925.362500",
        "104926.362500",
        "104927.362500",
        "104928.362500",
        "104929.362500",
        "104930.362500",
        "104931.362500",
        "104932.362500",
        "104933.362500",
        "104934.362500",
        "104935.362500",
        "104936.362500",
        "104937.362500",
        "104938.362500",
        "104939.362500",
        "104940.362500",
        "104941.362500",
        "104942.362500",
        "104943.362500",
        "104944.362500",
        "104945.362500"
      ],
      "ContentTime": [
        "104459.552000",
        "104500.346000",
        "104501.413000",
        "104502.380000",
        "104503.369000",
        "104504.366000",
        "104505.354000",
        "104506.368000",
        "104507.389000",
        "104508.379000",
        "104509.352000",
        "104510.365000",
        "104511.369000",
        "104512.367000",
        "104513.363000",
        "104514.394000",
        "104515.412000",
        "104516.347000",
        "104517.389000",
        "104518.369000",
        "104519.380000",
        "104520.349000",
        "104521.371000",
        "104522.365000",
        "104523.388000",
        "104524.356000",
        "104525.350000",
        "104526.360000",
        "104527.351000",
        "104528.366000",
        "104529.386000",
        "104530.354000",
        "104531.359000",
        "104532.326000",
        "104533.353000",
        "104534.360000",
        "104535.352000",
        "104536.357000",
        "104537.375000",
        "104538.395000",
        "104539.384000",
        "104540.359000",
        "104541.365000",
        "104542.372000",
        "104543.367000",
        "104544.355000",
        "104545.368000",
        "104546.352000",
        "104547.352000",
        "104548.351000",
        "104549.359000",
        "104550.355000",
        "104551.421000",
        "104552.331000",
        "104553.366000",
        "104554.347000",
        "104555.347000",
        "104556.360000",
        "104557.337000",
        "104558.367000",
        "104559.357000",
        "104600.335000",
        "104601.362000",
        "104602.366000",
        "104603.353000",
        "104604.351000",
        "104605.357000",
        "104606.373000",
        "104607.360000",
        "104608.351000",
        "104609.403000",
        "104610.366000",
        "104611.333000",
        "104612.358000",
        "104613.336000",
        "104614.358000",
        "104615.358000",
        "104616.344000",
        "104617.424000",
        "104618.370000",
        "104619.360000",
        "104620.357000",
        "104621.348000",
        "104622.371000",
        "104623.370000",
        "104624.360000",
        "104625.378000",
        "104626.390000",
        "104627.370000",
        "104628.387000",
        "104629.389000",
        "104630.380000",
        "104631.352000",
        "104632.365000",
        "104633.346000",
        "104634.328000",
        "104635.365000",
        "104636.385000",
        "104637.363000",
        "104638.372000",
        "104639.376000",
        "104640.363000",
        "104641.368000",
        "104642.373000",
        "104643.365000",
        "104644.354000",
        "104645.349000",
        "104646.374000",
        "104647.374000",
        "104648.369000",
        "104649.367000",
        "104650.375000",
        "104651.365000",
        "104652.380000",
        "104653.367000",
        "104654.379000",
        "104655.362000",
        "104656.408000",
        "104657.410000",
        "104658.372000",
        "104659.360000",
        "104700.399000",
        "104701.351000",
        "104702.400000",
        "104703.368000",
        "104704.380000",
        "104705.353000",
        "104706.374000",
        "104707.356000",
        "104708.350000",
        "104709.371000",
        "104710.365000",
        "104711.360000",
        "104712.346000",
        "104713.379000",
        "104714.376000",
        "104715.389000",
        "104716.370000",
        "104717.371000",
        "104718.401000",
        "104719.356000",
        "104720.368000",
        "104721.376000",
        "104722.357000",
        "104723.342000",
        "104724.376000",
        "104725.395000",
        "104726.366000",
        "104727.373000",
        "104728.374000",
        "104729.376000",
        "104730.374000",
        "104731.400000",
        "104732.393000",
        "104733.353000",
        "104734.381000",
        "104735.356000",
        "104736.359000",
        "104737.392000",
        "104738.355000",
        "104739.366000",
        "104740.405000",
        "104741.362000",
        "104742.375000",
        "104743.370000",
        "104744.381000",
        "104745.376000",
        "104746.375000",
        "104747.378000",
        "104748.375000",
        "104749.352000",
        "104750.394000",
        "104751.396000",
        "104752.348000",
        "104753.369000",
        "104754.364000",
        "104755.346000",
        "104756.355000",
        "104757.365000",
        "104758.383000",
        "104759.349000",
        "104800.367000",
        "104801.376000",
        "104802.367000",
        "104803.364000",
        "104804.383000",
        "104805.369000",
        "104806.394000",
        "104807.384000",
        "104808.356000",
        "104809.363000",
        "104810.373000",
        "104811.377000",
        "104812.355000",
        "104813.356000",
        "104814.368000",
        "104815.371000",
        "104816.351000",
        "104817.366000",
        "104818.375000",
        "104819.336000",
        "104820.358000",
        "104821.354000",
        "104822.367000",
        "104823.336000",
        "104824.374000",
        "104825.400000",
        "104826.390000",
        "104827.391000",
        "104828.380000",
        "104829.379000",
        "104830.376000",
        "104831.401000",
        "104832.384000",
        "104833.359000",
        "104834.366000",
        "104835.360000",
        "104836.366000",
        "104837.369000",
        "104838.329000",
        "104839.359000",
        "104840.360000",
        "104841.348000",
        "104842.375000",
        "104843.351000",
        "104844.347000",
        "104845.346000",
        "104846.345000",
        "104847.354000",
        "104848.353000",
        "104849.356000",
        "104850.343000",
        "104851.364000",
        "104852.377000",
        "104853.358000",
        "104854.351000",
        "104855.360000",
        "104856.383000",
        "104857.376000",
        "104858.356000",
        "104859.353000",
        "104900.366000",
        "104901.355000",
        "104902.386000",
        "104903.380000",
        "104904.361000",
        "104905.379000",
        "104906.370000",
        "104907.337000",
        "104908.347000",
        "104909.376000",
        "104910.370000",
        "104911.341000",
        "104912.355000",
        "104913.361000",
        "104914.370000",
        "104915.345000",
        "104916.370000",
        "104917.351000",
        "104918.373000",
        "104919.366000",
        "104920.362000",
        "104921.365000",
        "104922.350000",
        "104923.372000",
        "104924.346000",
        "104925.370000",
        "104926.364000",
        "104927.349000",
        "104928.368000",
        "104929.351000",
        "104930.364000",
        "104931.381000",
        "104932.373000",
        "104933.351000",
        "104934.350000",
        "104935.414000",
        "104936.377000",
        "104937.369000",
        "104938.370000",
        "104939.373000",
        "104940.341000",
        "104941.349000",
        "104942.362000",
        "104943.368000",
        "104944.368000",
        "104945.382000",
        "104946.391000"
      ],
      "InstanceCreationTime": [
        "104459.552000",
        "104500.346000",
        "104501.413000",
        "104502.380000",
        "104503.369000",
        "104504.366000",
        "104505.354000",
        "104506.368000",
        "104507.389000",
        "104508.379000",
        "104509.352000",
        "104510.365000",
        "104511.369000",
        "104512.367000",
        "104513.363000",
        "104514.394000",
        "104515.412000",
        "104516.347000",
        "104517.389000",
        "104518.369000",
        "104519.380000",
        "104520.349000",
        "104521.371000",
        "104522.365000",
        "104523.388000",
        "104524.356000",
        "104525.350000",
        "104526.360000",
        "104527.351000",
        "104528.366000",
        "104529.386000",
        "104530.354000",
        "104531.359000",
        "104532.326000",
        "104533.353000",
        "104534.360000",
        "104535.352000",
        "104536.357000",
        "104537.375000",
        "104538.395000",
        "104539.384000",
        "104540.359000",
        "104541.365000",
        "104542.372000",
        "104543.367000",
        "104544.355000",
        "104545.368000",
        "104546.352000",
        "104547.352000",
        "104548.351000",
        "104549.359000",
        "104550.355000",
        "104551.421000",
        "104552.331000",
        "104553.366000",
        "104554.347000",
        "104555.347000",
        "104556.360000",
        "104557.337000",
        "104558.367000",
        "104559.357000",
        "104600.335000",
        "104601.362000",
        "104602.366000",
        "104603.353000",
        "104604.351000",
        "104605.357000",
        "104606.373000",
        "104607.360000",
        "104608.351000",
        "104609.403000",
        "104610.366000",
        "104611.333000",
        "104612.358000",
        "104613.336000",
        "104614.358000",
        "104615.358000",
        "104616.344000",
        "104617.424000",
        "104618.370000",
        "104619.360000",
        "104620.357000",
        "104621.348000",
        "104622.371000",
        "104623.370000",
        "104624.360000",
        "104625.378000",
        "104626.390000",
        "104627.370000",
        "104628.387000",
        "104629.389000",
        "104630.380000",
        "104631.352000",
        "104632.365000",
        "104633.346000",
        "104634.328000",
        "104635.365000",
        "104636.385000",
        "104637.363000",
        "104638.372000",
        "104639.376000",
        "104640.363000",
        "104641.368000",
        "104642.373000",
        "104643.365000",
        "104644.354000",
        "104645.349000",
        "104646.374000",
        "104647.374000",
        "104648.369000",
        "104649.367000",
        "104650.375000",
        "104651.365000",
        "104652.380000",
        "104653.367000",
        "104654.379000",
        "104655.362000",
        "104656.408000",
        "104657.410000",
        "104658.372000",
        "104659.360000",
        "104700.399000",
        "104701.351000",
        "104702.400000",
        "104703.368000",
        "104704.380000",
        "104705.353000",
        "104706.374000",
        "104707.356000",
        "104708.350000",
        "104709.371000",
        "104710.365000",
        "104711.360000",
        "104712.346000",
        "104713.379000",
        "104714.376000",
        "104715.389000",
        "104716.370000",
        "104717.371000",
        "104718.401000",
        "104719.356000",
        "104720.368000",
        "104721.376000",
        "104722.357000",
        "104723.342000",
        "104724.376000",
        "104725.395000",
        "104726.366000",
        "104727.373000",
        "104728.374000",
        "104729.376000",
        "104730.374000",
        "104731.400000",
        "104732.393000",
        "104733.353000",
        "104734.381000",
        "104735.356000",
        "104736.359000",
        "104737.392000",
        "104738.355000",
        "104739.366000",
        "104740.405000",
        "104741.362000",
        "104742.375000",
        "104743.370000",
        "104744.381000",
        "104745.376000",
        "104746.375000",
        "104747.378000",
        "104748.375000",
        "104749.352000",
        "104750.394000",
        "104751.396000",
        "104752.348000",
        "104753.369000",
        "104754.364000",
        "104755.346000",
        "104756.355000",
        "104757.365000",
        "104758.383000",
        "104759.349000",
        "104800.367000",
        "104801.376000",
        "104802.367000",
        "104803.364000",
        "104804.383000",
        "104805.369000",
        "104806.394000",
        "104807.384000",
        "104808.356000",
        "104809.363000",
        "104810.373000",
        "104811.377000",
        "104812.355000",
        "104813.356000",
        "104814.368000",
        "104815.371000",
        "104816.351000",
        "104817.366000",
        "104818.375000",
        "104819.336000",
        "104820.358000",
        "104821.354000",
        "104822.367000",
        "104823.336000",
        "104824.374000",
        "104825.400000",
        "104826.390000",
        "104827.391000",
        "104828.380000",
        "104829.379000",
        "104830.376000",
        "104831.401000",
        "104832.384000",
        "104833.359000",
        "104834.366000",
        "104835.360000",
        "104836.366000",
        "104837.369000",
        "104838.329000",
        "104839.359000",
        "104840.360000",
        "104841.348000",
        "104842.375000",
        "104843.351000",
        "104844.347000",
        "104845.346000",
        "104846.345000",
        "104847.354000",
        "104848.353000",
        "104849.356000",
        "104850.343000",
        "104851.364000",
        "104852.377000",
