{
  "AcquisitionMatrixPE": 120,
  "AcquisitionNumber": 1,
  "AcquisitionTime": "11:13:30.535000",
  "BandwidthPerPixelPhaseEncode": 13.889,
  "BaseResolution": 120,
  "BodyPartExamined": "BRAIN",
  "ConsistencyInfo": "N4_VE11C_LATEST_20160120",
  "ConversionSoftware": "dcm2niix",
  "ConversionSoftwareVersion": "v1.0.20171215 (OpenJPEG build) GCC6.3.0",
  "DerivedVendorReportedEchoSpacing": 0.000599995,
  "DeviceSerialNumber": "66112",
  "DwellTime": 2e-06,
  "EchoTime": 0.103,
  "EchoTrainLength": 120,
  "EffectiveEchoSpacing": 0.000599995,
  "FlipAngle": 90,
  "ImageOrientationPatientDICOM": [0.997692, 0.0505205, -0.0453606, -0.0536838, 0.995998, -0.0714622],
  "ImageType": [
    "ORIGINAL",
    "PRIMARY",
    "DIFFUSION",
    "NONE",
    "ND",
    "NORM",
    "MOSAIC"
],
  "InPlanePhaseEncodingDirectionDICOM": "COL",
  "InstitutionAddress": "Maynard_3_Hanover_NH_US_03755",
  "InstitutionName": "Dartmouth_College_-_PBS",
  "InstitutionalDepartmentName": "Department",
  "MRAcquisitionType": "2D",
  "MagneticFieldStrength": 3,
  "Manufacturer": "Siemens",
  "ManufacturersModelName": "Prisma",
  "Modality": "MR",
  "MultibandAccelerationFactor": 4,
  "PartialFourier": 1,
  "PatientPosition": "HFS",
  "PercentPhaseFOV": 100,
  "PhaseEncodingDirection": "j-",
  "PhaseEncodingSteps": 120,
  "PhaseResolution": 1,
  "PixelBandwidth": 2085,
  "ProcedureStepDescription": "Gobbini_Matteo_1038_hyperface",
  "ProtocolName": "dwi_acq-2.0mmXhardi96Xsms4X11b0",
  "PulseSequenceDetails": "%SiemensSeq%_ep2d_diff",
  "ReceiveCoilActiveElements": "HEA;HEP",
  "ReceiveCoilName": "Head_32",
  "ReconMatrixPE": 120,
  "RepetitionTime": 2.6,
  "SAR": 0.303043,
  "ScanOptions": "FS",
  "ScanningSequence": "EP",
  "SequenceName": "_ep_b0",
  "SequenceVariant": "SK_SP",
  "SeriesDescription": "dwi_acq-2.0mmXhardi96Xsms4X11b0",
  "SeriesNumber": 65,
  "ShimSetting": [4132, -7691, -7291, 670, -16, -69, 62, 89],
  "SliceThickness": 2,
  "SliceTiming": [1.935, 0, 1.29, 0.16, 1.45, 0.3225, 1.6125, 0.4825, 1.7725, 0.805, 2.095, 0.9675, 2.2575, 1.1275, 2.4175, 0.645, 1.935, 0, 1.29, 0.16, 1.45, 0.3225, 1.6125, 0.4825, 1.7725, 0.805, 2.095, 0.9675, 2.2575, 1.1275, 2.4175, 0.645, 1.935, 0, 1.29, 0.16, 1.45, 0.3225, 1.6125, 0.4825, 1.7725, 0.805, 2.095, 0.9675, 2.2575, 1.1275, 2.4175, 0.645, 1.935, 0, 1.29, 0.16, 1.45, 0.3225, 1.6125, 0.4825, 1.7725, 0.805, 2.095, 0.9675, 2.2575, 1.1275, 2.4175, 0.645],
  "SoftwareVersions": "syngo_MR_E11",
  "SpacingBetweenSlices": 2,
  "StationName": "AWP66112",
  "TotalReadoutTime": 0.0713994,
  "TxRefAmp": 259.734,
  "dcmmeta_affine": [
    [-1.9953848123550415, -0.10736757516860962, -0.0831373780965805, 129.93350219726562],
    [-0.10104109346866608, 1.9919952154159546, -0.14746488630771637, -92.5224380493164],
    [-0.09072110056877136, 0.1429244428873062, 1.9928227663040161, -79.35547637939453],
    [0.0, 0.0, 0.0, 1.0]
],
  "dcmmeta_reorient_transform": [
    [0.0, -1.0, 0.0, 119.0],
    [1.0, 0.0, 0.0, 0.0],
    [0.0, 0.0, 1.0, 0.0],
    [0.0, 0.0, 0.0, 1.0]
],
  "dcmmeta_shape": [120, 120, 64, 107],
  "dcmmeta_slice_dim": 2,
  "dcmmeta_version": 0.6,
  "global": {
    "const": {
      "AccessionNumber": "A001345",
      "AcquisitionMatrix": [120, 0, 0, 120],
      "AngioFlag": "N",
      "BitsAllocated": 16,
      "BitsStored": 12,
      "BodyPartExamined": "BRAIN",
      "Columns": 960,
      "EchoNumbers": 1,
      "EchoTime": 103.0,
      "EchoTrainLength": 120,
      "FlipAngle": 90.0,
      "HighBit": 11,
      "ImageOrientationPatient": [0.99769238499028, 0.0505205455783, -0.0453605490144, -0.0536837888293, 0.99599759120535, -0.0714622216984],
      "ImagePositionPatient": [-910.12397591495, -1023.6002251856, 35.783656576172],
      "ImageType": [
        "ORIGINAL",
        "PRIMARY",
        "DIFFUSION",
        "NONE",
        "ND",
        "NORM",
        "MOSAIC"
],
      "ImagedNucleus": "1H",
      "ImagingFrequency": 123.252313,
      "InPlanePhaseEncodingDirection": "COL",
      "MRAcquisitionType": "2D",
      "MagneticFieldStrength": 3.0,
      "Manufacturer": "SIEMENS",
      "ManufacturerModelName": "Prisma",
      "Modality": "MR",
      "NumberOfAverages": 1.0,
      "NumberOfPhaseEncodingSteps": 120,
      "PercentPhaseFieldOfView": 100.0,
      "PercentSampling": 100.0,
      "PerformedProcedureStepStartTime": "101956.908000",
      "PhotometricInterpretation": "MONOCHROME2",
      "PixelBandwidth": 2085.0,
      "PixelRepresentation": 0,
      "PixelSpacing": [2.0, 2.0],
      "PositionReferenceIndicator": "",
      "ProtocolName": "dwi_acq-2.0mmXhardi96Xsms4X11b0",
      "RepetitionTime": 2600.0,
      "Rows": 960,
      "SAR": 0.30304265108625,
      "SamplesPerPixel": 1,
      "ScanOptions": "FS",
      "ScanningSequence": "EP",
      "SequenceVariant": [
        "SK",
        "SP"
],
      "SeriesDescription": "dwi_acq-2.0mmXhardi96Xsms4X11b0",
      "SeriesNumber": 65,
      "SeriesTime": "111436.437000",
      "SliceLocation": -77.649960105692,
      "SliceThickness": 2.0,
      "SmallestImagePixelValue": 0,
      "SoftwareVersions": "syngo MR E11",
      "SpacingBetweenSlices": 2.0000000451087,
      "SpecificCharacterSet": "ISO_IR 100",
      "StudyID": "3",
      "StudyTime": "101956.857000",
      "TransmitCoilName": "Body",
      "VariableFlipAngleFlag": "N",
      "WindowCenterWidthExplanation": "Algo1",
      "dBdt": 0.0},
    "slices": {}
  },
  "time": {
    "samples": {
      "AcquisitionNumber": [1, 2, 3, 4, 5, 6, 7, 8, 9, 10, 11, 12, 13, 14, 15, 16, 17, 18, 19, 20, 21, 22, 23, 24, 25, 26, 27, 28, 29, 30, 31, 32, 33, 34, 35, 36, 37, 38, 39, 40, 41, 42, 43, 44, 45, 46, 47, 48, 49, 50, 51, 52, 53, 54, 55, 56, 57, 58, 59, 60, 61, 62, 63, 64, 65, 66, 67, 68, 69, 70, 71, 72, 73, 74, 75, 76, 77, 78, 79, 80, 81, 82, 83, 84, 85, 86, 87, 88, 89, 90, 91, 92, 93, 94, 95, 96, 97, 98, 99, 100, 101, 102, 103, 104, 105, 106, 107],
      "AcquisitionTime": ["111330.535000", "111333.135000", "111335.735000", "111338.335000", "111340.935000", "111343.535000", "111346.135000", "111348.735000", "111351.335000", "111353.935000", "111356.535000", "111359.135000", "111401.735000", "111404.335000", "111406.935000", "111409.535000", "111412.135000", "111414.735000", "111417.335000", "111419.935000", "111422.535000", "111425.135000", "111427.735000", "111430.335000", "111432.935000", "111435.535000", "111438.135000", "111440.735000", "111443.335000", "111445.935000", "111448.535000", "111451.135000", "111453.735000", "111456.335000", "111458.935000", "111501.535000", "111504.135000", "111506.735000", "111509.335000", "111511.935000", "111514.535000", "111517.135000", "111519.735000", "111522.335000", "111524.935000", "111527.535000", "111530.135000", "111532.735000", "111535.335000", "111537.935000", "111540.535000", "111543.135000", "111545.735000", "111548.335000", "111550.935000", "111553.535000", "111556.135000", "111558.735000", "111601.335000", "111603.935000", "111606.535000", "111609.135000", "111611.735000", "111614.335000", "111616.935000", "111619.535000", "111622.135000", "111624.735000", "111627.335000", "111629.935000", "111632.535000", "111635.135000", "111637.735000", "111640.335000", "111642.935000", "111645.535000", "111648.135000", "111650.735000", "111653.335000", "111655.935000", "111658.535000", "111701.135000", "111703.735000", "111706.335000", "111708.935000", "111711.535000", "111714.135000", "111716.735000", "111719.335000", "111721.935000", "111724.535000", "111727.135000", "111729.735000", "111732.335000", "111734.935000", "111737.535000", "111740.135000", "111742.735000", "111745.335000", "111747.935000", "111750.535000", "111753.135000", "111755.735000", "111758.335000", "111800.935000", "111803.535000", "111806.135000"],
      "ContentTime": ["111436.441000", "111436.445000", "111436.448000", "111436.452000", "111436.455000", "111436.468000", "111436.471000", "111436.479000", "111436.483000", "111436.486000", "111436.489000", "111436.492000", "111436.502000", "111436.505000", "111436.508000", "111436.511000", "111436.514000", "111436.517000", "111436.520000", "111436.524000", "111436.527000", "111436.530000", "111436.533000", "111436.536000", "111436.539000", "111536.426000", "111536.430000", "111536.433000", "111536.436000", "111536.439000", "111536.447000", "111536.450000", "111536.454000", "111536.457000", "111536.460000", "111536.463000", "111536.466000", "111536.469000", "111536.473000", "111536.476000", "111536.479000", "111536.482000", "111536.485000", "111536.488000", "111536.491000", "111536.495000", "111536.498000", "111536.501000", "111636.426000", "111636.430000", "111636.433000", "111636.436000", "111636.440000", "111636.443000", "111636.446000", "111636.449000", "111636.452000", "111636.455000", "111636.458000", "111636.462000", "111636.465000", "111636.468000", "111636.471000", "111636.474000", "111636.478000", "111636.481000", "111636.484000", "111636.487000", "111636.490000", "111636.493000", "111636.497000", "111736.426000", "111736.430000", "111736.433000", "111736.436000", "111736.439000", "111736.443000", "111736.446000", "111736.449000", "111736.452000", "111736.455000", "111736.459000", "111736.462000", "111736.465000", "111736.468000", "111736.476000", "111736.479000", "111736.482000", "111736.485000", "111736.488000", "111736.491000", "111736.494000", "111736.498000", "111736.501000", "111808.167000", "111808.170000", "111808.173000", "111808.176000", "111808.180000", "111808.183000", "111808.186000", "111808.189000", "111808.192000", "111808.196000", "111808.199000", "111808.202000", "111808.205000"],
      "InstanceCreationTime": ["111436.441000", "111436.445000", "111436.448000", "111436.452000", "111436.455000", "111436.468000", "111436.471000", "111436.479000", "111436.483000", "111436.486000", "111436.489000", "111436.492000", "111436.502000", "111436.505000", "111436.508000", "111436.511000", "111436.514000", "111436.517000", "111436.520000", "111436.524000", "111436.527000", "111436.530000", "111436.533000", "111436.536000", "111436.539000", "111536.426000", "111536.430000", "111536.433000", "111536.436000", "111536.439000", "111536.447000", "111536.450000", "111536.454000", "111536.457000", "111536.460000", "111536.463000", "111536.466000", "111536.469000", "111536.473000", "111536.476000", "111536.479000", "111536.482000", "111536.485000", "111536.488000", "111536.491000", "111536.495000", "111536.498000", "111536.501000", "111636.426000", "111636.430000", "111636.433000", "111636.436000", "111636.440000", "111636.443000", "111636.446000", "111636.449000", "111636.452000", "111636.455000", "111636.458000", "111636.462000", "111636.465000", "111636.468000", "111636.471000", "111636.474000", "111636.478000", "111636.481000", "111636.484000", "111636.487000", "111636.490000", "111636.493000", "111636.497000", "111736.426000", "111736.430000", "111736.433000", "111736.436000", "111736.439000", "111736.443000", "111736.446000", "111736.449000", "111736.452000", "111736.455000", "111736.459000", "111736.462000", "111736.465000", "111736.468000", "111736.476000", "111736.479000", "111736.482000", "111736.485000", "111736.488000", "111736.491000", "111736.494000", "111736.498000", "111736.501000", "111808.167000", "111808.170000", "111808.173000", "111808.176000", "111808.180000", "111808.183000", "111808.186000", "111808.189000", "111808.192000", "111808.196000", "111808.199000", "111808.202000", "111808.205000"],
      "InstanceNumber": [1, 2, 3, 4, 5, 6, 7, 8, 9, 10, 11, 12, 13, 14, 15, 16, 17, 18, 19, 20, 21, 22, 23, 24, 25, 26, 27, 28, 29, 30, 31, 32, 33, 34, 35, 36, 37, 38, 39, 40, 41, 42, 43, 44, 45, 46, 47, 48, 49, 50, 51, 52, 53, 54, 55, 56, 57, 58, 59, 60, 61, 62, 63, 64, 65, 66, 67, 68, 69, 70, 71, 72, 73, 74, 75, 76, 77, 78, 79, 80, 81, 82, 83, 84, 85, 86, 87, 88, 89, 90, 91, 92, 93, 94, 95, 96, 97, 98, 99, 100, 101, 102, 103, 104, 105, 106, 107],
      "LargestImagePixelValue": [3294, 3058, 409, 442, 401, 419, 441, 428, 487, 401, 483, 3189, 446, 425, 407, 417, 442, 395, 443, 404, 437, 397, 3247, 495, 395, 417, 429, 505, 455, 461, 414, 373, 415, 3357, 430, 461, 375, 433, 387, 463, 457, 413, 411, 458, 3323, 417, 391, 419, 404, 479, 399, 481, 385, 377, 418, 3222, 386, 433, 416, 394, 456, 431, 440, 381, 408, 391, 3164, 426, 429, 435, 462, 445, 376, 464, 408, 412, 419, 2920, 445, 445, 399, 438, 411, 425, 406, 445, 416, 3109, 421, 481, 439, 420, 408, 464, 411, 394, 381, 3015, 475, 449, 395, 447, 416, 426, 421, 422, 386],
      "SequenceName": [
        "*ep_b0",
        "*ep_b0",
        "*ep_b1000#2",
        "*ep_b1000#3",
        "*ep_b1000#4",
        "*ep_b1000#5",
        "*ep_b1000#6",
        "*ep_b1000#7",
        "*ep_b1000#8",
        "*ep_b1000#9",
        "*ep_b1000#10",
        "*ep_b0",
        "*ep_b1000#12",
        "*ep_b1000#13",
        "*ep_b1000#14",
        "*ep_b1000#15",
        "*ep_b1000#16",
        "*ep_b1000#17",
        "*ep_b1000#18",
        "*ep_b1000#19",
        "*ep_b1000#20",
        "*ep_b1000#21",
        "*ep_b0",
        "*ep_b1000#23",
        "*ep_b1000#24",
        "*ep_b1000#25",
        "*ep_b1000#26",
        "*ep_b1000#27",
        "*ep_b1000#28",
        "*ep_b1000#29",
        "*ep_b1000#30",
        "*ep_b1000#31",
        "*ep_b1000#32",
        "*ep_b0",
        "*ep_b1000#34",
        "*ep_b1000#35",
        "*ep_b1000#36",
        "*ep_b1000#37",
        "*ep_b1000#38",
        "*ep_b1000#39",
        "*ep_b1000#40",
        "*ep_b1000#41",
        "*ep_b1000#42",
        "*ep_b1000#43",
        "*ep_b0",
        "*ep_b1000#45",
        "*ep_b1000#46",
        "*ep_b1000#47",
        "*ep_b1000#48",
        "*ep_b1000#49",
        "*ep_b1000#50",
        "*ep_b1000#51",
        "*ep_b1000#52",
        "*ep_b1000#53",
        "*ep_b1000#54",
        "*ep_b0",
        "*ep_b1000#56",
        "*ep_b1000#57",
        "*ep_b1000#58",
        "*ep_b1000#59",
        "*ep_b1000#60",
        "*ep_b1000#61",
        "*ep_b1000#62",
        "*ep_b1000#63",
        "*ep_b1000#64",
        "*ep_b1000#65",
        "*ep_b0",
        "*ep_b1000#67",
        "*ep_b1000#68",
        "*ep_b1000#69",
        "*ep_b1000#70",
        "*ep_b1000#71",
        "*ep_b1000#72",
        "*ep_b1000#73",
        "*ep_b1000#74",
        "*ep_b1000#75",
        "*ep_b1000#76",
        "*ep_b0",
        "*ep_b1000#78",
        "*ep_b1000#79",
        "*ep_b1000#80",
        "*ep_b1000#81",
        "*ep_b1000#82",
        "*ep_b1000#83",
        "*ep_b1000#84",
        "*ep_b1000#85",
        "*ep_b1000#86",
        "*ep_b0",
        "*ep_b1000#88",
        "*ep_b1000#89",
        "*ep_b1000#90",
        "*ep_b1000#91",
        "*ep_b1000#92",
        "*ep_b1000#93",
        "*ep_b1000#94",
        "*ep_b1000#95",
        "*ep_b1000#96",
        "*ep_b0",
        "*ep_b1000#98",
        "*ep_b1000#99",
        "*ep_b1000#100",
        "*ep_b1000#101",
        "*ep_b1000#102",
        "*ep_b1000#103",
        "*ep_b1000#104",
        "*ep_b1000#105",
        "*ep_b1000#106"
],
      "WindowCenter": [284.0, 268.0, 110.0, 115.0, 112.0, 113.0, 112.0, 112.0, 114.0, 109.0, 114.0, 274.0, 114.0, 112.0, 110.0, 113.0, 113.0, 110.0, 113.0, 114.0, 110.0, 113.0, 277.0, 112.0, 114.0, 111.0, 113.0, 114.0, 111.0, 113.0, 110.0, 111.0, 114.0, 285.0, 113.0, 113.0, 110.0, 114.0, 110.0, 113.0, 114.0, 113.0, 111.0, 114.0, 282.0, 112.0, 111.0, 114.0, 112.0, 112.0, 111.0, 112.0, 111.0, 113.0, 112.0, 274.0, 113.0, 110.0, 113.0, 110.0, 115.0, 113.0, 112.0, 111.0, 112.0, 111.0, 272.0, 111.0, 114.0, 112.0, 112.0, 111.0, 110.0, 113.0, 112.0, 113.0, 110.0, 260.0, 113.0, 112.0, 112.0, 111.0, 113.0, 112.0, 112.0, 113.0, 111.0, 268.0, 113.0, 113.0, 113.0, 112.0, 112.0, 110.0, 114.0, 112.0, 112.0, 262.0, 112.0, 111.0, 112.0, 112.0, 113.0, 113.0, 111.0, 112.0, 110.0],
      "WindowWidth": [643.0, 618.0, 277.0, 287.0, 280.0, 283.0, 282.0, 281.0, 286.0, 275.0, 285.0, 625.0, 285.0, 280.0, 276.0, 284.0, 284.0, 277.0, 283.0, 285.0, 277.0, 284.0, 628.0, 282.0, 286.0, 279.0, 282.0, 285.0, 280.0, 283.0, 277.0, 280.0, 286.0, 639.0, 283.0, 282.0, 276.0, 285.0, 278.0, 284.0, 284.0, 284.0, 279.0, 285.0, 635.0, 280.0, 279.0, 286.0, 282.0, 281.0, 280.0, 281.0, 280.0, 283.0, 281.0, 625.0, 284.0, 277.0, 284.0, 277.0, 287.0, 284.0, 282.0, 278.0, 281.0, 279.0, 623.0, 280.0, 285.0, 282.0, 281.0, 280.0, 278.0, 284.0, 280.0, 284.0, 278.0, 605.0, 284.0, 281.0, 282.0, 279.0, 284.0, 280.0, 282.0, 283.0, 279.0, 616.0, 283.0, 283.0, 284.0, 282.0, 281.0, 278.0, 286.0, 282.0, 281.0, 606.0, 281.0, 279.0, 280.0, 281.0, 283.0, 284.0, 279.0, 282.0, 278.0]
    },
    "slices": {}
  }
}