{
  "AcquisitionMatrixPE": 120,
  "AcquisitionNumber": 1,
  "BandwidthPerPixelPhaseEncode": 13.889,
  "BaseResolution": 120,
  "BodyPartExamined": "BRAIN",
  "ConsistencyInfo": "N4_VE11C_LATEST_20160120",
  "ConversionSoftware": "dcm2niix",
  "ConversionSoftwareVersion": "v1.0.20171215 (OpenJPEG build) GCC6.3.0",
  "DerivedVendorReportedEchoSpacing": 0.000599995,
  "DeviceSerialNumber": "66112",
  "DwellTime": 2e-06,
  "EchoTime": 0.103,
  "EchoTrainLength": 120,
  "EffectiveEchoSpacing": 0.000599995,
  "FlipAngle": 90,
  "ImageOrientationPatientDICOM": [
    0.999099,
    0.00120388,
    0.0424178,
    -0.000697488,
    0.999928,
    -0.0119511
  ],
  "ImageType": [
    "ORIGINAL",
    "PRIMARY",
    "DIFFUSION",
    "NONE",
    "ND",
    "NORM",
    "MOSAIC"
  ],
  "InPlanePhaseEncodingDirectionDICOM": "COL",
  "InstitutionAddress": "Maynard_3_Hanover_NH_US_03755",
  "InstitutionName": "Dartmouth_College_-_PBS",
  "InstitutionalDepartmentName": "Department",
  "MRAcquisitionType": "2D",
  "MagneticFieldStrength": 3,
  "Manufacturer": "Siemens",
  "ManufacturersModelName": "Prisma",
  "Modality": "MR",
  "MultibandAccelerationFactor": 4,
  "PartialFourier": 1,
  "PatientPosition": "HFS",
  "PercentPhaseFOV": 100,
  "PhaseEncodingDirection": "j-",
  "PhaseEncodingSteps": 120,
  "PhaseResolution": 1,
  "PixelBandwidth": 2085,
  "ProcedureStepDescription": "Gobbini_Matteo_1038_hyperface",
  "ProtocolName": "dwi_acq-2.0mmXhardi96Xsms4X11b0",
  "PulseSequenceDetails": "%SiemensSeq%_ep2d_diff",
  "ReceiveCoilActiveElements": "HEA;HEP",
  "ReceiveCoilName": "Head_32",
  "ReconMatrixPE": 120,
  "RepetitionTime": 2.6,
  "SAR": 0.24919,
  "ScanOptions": "FS",
  "ScanningSequence": "EP",
  "SequenceName": "_ep_b0",
  "SequenceVariant": "SK_SP",
  "SeriesDescription": "dwi_acq-2.0mmXhardi96Xsms4X11b0",
  "SeriesNumber": 66,
  "ShimSetting": [
    4154,
    -7718,
    -7477,
    295,
    -34,
    -23,
    -121,
    64
  ],
  "SliceThickness": 2,
  "SliceTiming": [
    1.935,
    0,
    1.29,
    0.1625,
    1.4525,
    0.3225,
    1.6125,
    0.485,
    1.775,
    0.8075,
    2.0975,
    0.9675,
    2.2575,
    1.13,
    2.42,
    0.645,
    1.935,
    0,
    1.29,
    0.1625,
    1.4525,
    0.3225,
    1.6125,
    0.485,
    1.775,
    0.8075,
    2.0975,
    0.9675,
    2.2575,
    1.13,
    2.42,
    0.645,
    1.935,
    0,
    1.29,
    0.1625,
    1.4525,
    0.3225,
    1.6125,
    0.485,
    1.775,
    0.8075,
    2.0975,
    0.9675,
    2.2575,
    1.13,
    2.42,
    0.645,
    1.935,
    0,
    1.29,
    0.1625,
    1.4525,
    0.3225,
    1.6125,
    0.485,
    1.775,
    0.8075,
    2.0975,
    0.9675,
    2.2575,
    1.13,
    2.42,
    0.645
  ],
  "SoftwareVersions": "syngo_MR_E11",
  "SpacingBetweenSlices": 2,
  "StationName": "AWP66112",
  "TotalReadoutTime": 0.0713994,
  "TxRefAmp": 229.09,
  "time": {
    "samples": {
      "AcquisitionNumber": [
        1,
        2,
        3,
        4,
        5,
        6,
        7,
        8,
        9,
        10,
        11,
        12,
        13,
        14,
        15,
        16,
        17,
        18,
        19,
        20,
        21,
        22,
        23,
        24,
        25,
        26,
        27,
        28,
        29,
        30,
        31,
        32,
        33,
        34,
        35,
        36,
        37,
        38,
        39,
        40,
        41,
        42,
        43,
        44,
        45,
        46,
        47,
        48,
        49,
        50,
        51,
        52,
        53,
        54,
        55,
        56,
        57,
        58,
        59,
        60,
        61,
        62,
        63,
        64,
        65,
        66,
        67,
        68,
        69,
        70,
        71,
        72,
        73,
        74,
        75,
        76,
        77,
        78,
        79,
        80,
        81,
        82,
        83,
        84,
        85,
        86,
        87,
        88,
        89,
        90,
        91,
        92,
        93,
        94,
        95,
        96,
        97,
        98,
        99,
        100,
        101,
        102,
        103,
        104,
        105,
        106,
        107
      ],
      "AcquisitionTime": [
        "105436.540000",
        "105439.140000",
        "105441.740000",
        "105444.340000",
        "105446.940000",
        "105449.540000",
        "105452.140000",
        "105454.740000",
        "105457.340000",
        "105459.940000",
        "105502.540000",
        "105505.140000",
        "105507.740000",
        "105510.340000",
        "105512.940000",
        "105515.540000",
        "105518.140000",
        "105520.740000",
        "105523.340000",
        "105525.940000",
        "105528.540000",
        "105531.140000",
        "105533.740000",
        "105536.340000",
        "105538.940000",
        "105541.540000",
        "105544.140000",
        "105546.740000",
        "105549.340000",
        "105551.940000",
        "105554.540000",
        "105557.140000",
        "105559.740000",
        "105602.340000",
        "105604.940000",
        "105607.540000",
        "105610.140000",
        "105612.740000",
        "105615.340000",
        "105617.940000",
        "105620.540000",
        "105623.140000",
        "105625.740000",
        "105628.340000",
        "105630.940000",
        "105633.540000",
        "105636.140000",
        "105638.740000",
        "105641.340000",
        "105643.940000",
        "105646.540000",
        "105649.140000",
        "105651.740000",
        "105654.340000",
        "105656.940000",
        "105659.540000",
        "105702.140000",
        "105704.740000",
        "105707.340000",
        "105709.940000",
        "105712.540000",
        "105715.140000",
        "105717.740000",
        "105720.340000",
        "105722.940000",
        "105725.540000",
        "105728.140000",
        "105730.740000",
        "105733.340000",
        "105735.940000",
        "105738.540000",
        "105741.140000",
        "105743.740000",
        "105746.340000",
        "105748.940000",
        "105751.540000",
        "105754.140000",
        "105756.740000",
        "105759.340000",
        "105801.940000",
        "105804.540000",
        "105807.140000",
        "105809.740000",
        "105812.340000",
        "105814.940000",
        "105817.540000",
        "105820.140000",
        "105822.740000",
        "105825.340000",
        "105827.940000",
        "105830.540000",
        "105833.140000",
        "105835.740000",
        "105838.340000",
        "105840.940000",
        "105843.540000",
        "105846.140000",
        "105848.740000",
        "105851.340000",
        "105853.940000",
        "105856.540000",
        "105859.140000",
        "105901.740000",
        "105904.340000",
        "105906.940000",
        "105909.540000",
        "105912.140000"
      ],
      "ContentTime": [
        "105544.392000",
        "105544.395000",
        "105544.411000",
        "105544.414000",
        "105544.418000",
        "105544.421000",
        "105544.424000",
        "105544.427000",
        "105544.430000",
        "105544.433000",
        "105544.439000",
        "105544.442000",
        "105544.445000",
        "105544.449000",
        "105544.452000",
        "105544.455000",
        "105544.458000",
        "105544.461000",
        "105544.464000",
        "105544.467000",
        "105544.470000",
        "105544.473000",
        "105544.477000",
        "105544.480000",
        "105544.483000",
        "105544.486000",
        "105644.387000",
        "105644.391000",
        "105644.394000",
        "105644.397000",
        "105644.400000",
        "105644.413000",
        "105644.417000",
        "105644.421000",
        "105644.424000",
        "105644.427000",
        "105644.430000",
        "105644.433000",
        "105644.437000",
        "105644.440000",
        "105644.443000",
        "105644.446000",
        "105644.449000",
        "105644.452000",
        "105644.455000",
        "105644.459000",
        "105644.462000",
        "105644.465000",
        "105644.468000",
        "105744.386000",
        "105744.390000",
        "105744.393000",
        "105744.396000",
        "105744.399000",
        "105744.402000",
        "105744.405000",
        "105744.409000",
        "105744.412000",
        "105744.415000",
        "105744.418000",
        "105744.421000",
        "105744.424000",
        "105744.428000",
        "105744.431000",
        "105744.442000",
        "105744.445000",
        "105744.448000",
        "105744.451000",
        "105744.454000",
        "105744.457000",
        "105744.460000",
        "105744.463000",
        "105844.387000",
        "105844.391000",
        "105844.394000",
        "105844.397000",
        "105844.400000",
        "105844.403000",
        "105844.407000",
        "105844.410000",
        "105844.413000",
        "105844.416000",
        "105844.419000",
        "105844.422000",
        "105844.425000",
        "105844.428000",
        "105844.432000",
        "105844.435000",
        "105844.438000",
        "105844.441000",
        "105844.444000",
        "105844.447000",
        "105844.450000",
        "105844.453000",
        "105844.457000",
        "105913.713000",
        "105913.716000",
        "105913.720000",
        "105913.723000",
        "105913.726000",
        "105913.729000",
        "105913.733000",
        "105913.736000",
        "105913.739000",
        "105913.742000",
        "105913.746000",
        "105913.749000"
      ],
      "InstanceCreationTime": [
        "105544.392000",
        "105544.395000",
        "105544.411000",
        "105544.414000",
        "105544.418000",
        "105544.421000",
        "105544.424000",
        "105544.427000",
        "105544.430000",
        "105544.433000",
        "105544.439000",
        "105544.442000",
        "105544.445000",
        "105544.449000",
        "105544.452000",
        "105544.455000",
        "105544.458000",
        "105544.461000",
        "105544.464000",
        "105544.467000",
        "105544.470000",
        "105544.473000",
        "105544.477000",
        "105544.480000",
        "105544.483000",
        "105544.486000",
        "105644.387000",
        "105644.391000",
        "105644.394000",
        "105644.397000",
        "105644.400000",
        "105644.413000",
        "105644.417000",
        "105644.421000",
        "105644.424000",
        "105644.427000",
        "105644.430000",
        "105644.433000",
        "105644.437000",
        "105644.440000",
        "105644.443000",
        "105644.446000",
        "105644.449000",
        "105644.452000",
        "105644.455000",
        "105644.459000",
        "105644.462000",
        "105644.465000",
        "105644.468000",
        "105744.386000",
        "105744.390000",
        "105744.393000",
        "105744.396000",
        "105744.399000",
        "105744.402000",
        "105744.405000",
        "105744.409000",
        "105744.412000",
        "105744.415000",
        "105744.418000",
        "105744.421000",
        "105744.424000",
        "105744.428000",
        "105744.431000",
        "105744.442000",
        "105744.445000",
        "105744.448000",
        "105744.451000",
        "105744.454000",
        "105744.457000",
        "105744.460000",
        "105744.463000",
        "105844.387000",
        "105844.391000",
        "105844.394000",
        "105844.397000",
        "105844.400000",
        "105844.403000",
        "105844.407000",
        "105844.410000",
        "105844.413000",
        "105844.416000",
        "105844.419000",
        "105844.422000",
        "105844.425000",
        "105844.428000",
        "105844.432000",
        "105844.435000",
        "105844.438000",
        "105844.441000",
        "105844.444000",
        "105844.447000",
        "105844.450000",
        "105844.453000",
        "105844.457000",
        "105913.713000",
        "105913.716000",
        "105913.720000",
        "105913.723000",
        "105913.726000",
        "105913.729000",
        "105913.733000",
        "105913.736000",
        "105913.739000",
        "105913.742000",
        "105913.746000",
        "105913.749000"
      ],
      "InstanceNumber": [
        1,
        2,
        3,
        4,
        5,
        6,
        7,
        8,
        9,
        10,
        11,
        12,
        13,
        14,
        15,
        16,
        17,
        18,
        19,
        20,
        21,
        22,
        23,
        24,
        25,
        26,
        27,
        28,
        29,
        30,
        31,
        32,
        33,
        34,
        35,
        36,
        37,
        38,
        39,
        40,
        41,
        42,
        43,
        44,
        45,
        46,
        47,
        48,
        49,
        50,
        51,
        52,
        53,
        54,
        55,
        56,
        57,
        58,
        59,
        60,
        61,
        62,
        63,
        64,
        65,
        66,
        67,
        68,
        69,
        70,
        71,
        72,
        73,
        74,
        75,
        76,
        77,
        78,
        79,
        80,
        81,
        82,
        83,
        84,
        85,
        86,
        87,
        88,
        89,
        90,
        91,
        92,
        93,
        94,
        95,
        96,
        97,
        98,
        99,
        100,
        101,
        102,
        103,
        104,
        105,
        106,
        107
      ],
      "LargestImagePixelValue": [
        2145,
        1987,
        475,
        443,
        471,
        480,
        470,
        488,
        452,
        460,
        490,
        1882,
        511,
        446,
        476,
        509,
        426,
        440,
        468,
        462,
        489,
        454,
        1895,
        498,
        500,
        425,
        507,
        464,
        471,
        422,
        470,
        417,
        473,
        1910,
        472,
        484,
        419,
        427,
        431,
        448,
        518,
        438,
        433,
        493,
        1823,
        452,
        406,
        465,
        516,
        409,
        386,
        443,
        461,
        417,
        420,
        1848,
        512,
        412,
        390,
        455,
        471,
        448,
        425,
        485,
        438,
        463,
        2308,
        433,
        451,
        486,
        490,
        473,
        435,
        430,
        441,
        443,
        431,
        2234,
        435,
        469,
        470,
        435,
        482,
        420,
        490,
        446,
        396,
        2081,
        401,
        455,
        428,
        441,
        483,
        439,
        439,
        430,
        446,
        2030,
        457,
        413,
        399,
        446,
        425,
        441,
        406,
        459,
        403
      ],
      "SequenceName": [
        "*ep_b0",
        "*ep_b0",
        "*ep_b1000#2",
        "*ep_b1000#3",
        "*ep_b1000#4",
        "*ep_b1000#5",
        "*ep_b1000#6",
        "*ep_b1000#7",
        "*ep_b1000#8",
        "*ep_b1000#9",
        "*ep_b1000#10",
        "*ep_b0",
        "*ep_b1000#12",
        "*ep_b1000#13",
        "*ep_b1000#14",
        "*ep_b1000#15",
        "*ep_b1000#16",
        "*ep_b1000#17",
        "*ep_b1000#18",
        "*ep_b1000#19",
        "*ep_b1000#20",
        "*ep_b1000#21",
        "*ep_b0",
        "*ep_b1000#23",
        "*ep_b1000#24",
        "*ep_b1000#25",
        "*ep_b1000#26",
        "*ep_b1000#27",
        "*ep_b1000#28",
        "*ep_b1000#29",
        "*ep_b1000#30",
        "*ep_b1000#31",
        "*ep_b1000#32",
        "*ep_b0",
        "*ep_b1000#34",
        "*ep_b1000#35",
        "*ep_b1000#36",
        "*ep_b1000#37",
        "*ep_b1000#38",
        "*ep_b1000#39",
        "*ep_b1000#40",
        "*ep_b1000#41",
        "*ep_b1000#42",
        "*ep_b1000#43",
        "*ep_b0",
        "*ep_b1000#45",
        "*ep_b1000#46",
        "*ep_b1000#47",
        "*ep_b1000#48",
        "*ep_b1000#49",
        "*ep_b1000#50",
        "*ep_b1000#51",
        "*ep_b1000#52",
        "*ep_b1000#53",
        "*ep_b1000#54",
        "*ep_b0",
        "*ep_b1000#56",
        "*ep_b1000#57",
        "*ep_b1000#58",
        "*ep_b1000#59",
        "*ep_b1000#60",
        "*ep_b1000#61",
        "*ep_b1000#62",
        "*ep_b1000#63",
        "*ep_b1000#64",
        "*ep_b1000#65",
        "*ep_b0",
        "*ep_b1000#67",
        "*ep_b1000#68",
        "*ep_b1000#69",
        "*ep_b1000#70",
        "*ep_b1000#71",
        "*ep_b1000#72",
        "*ep_b1000#73",
        "*ep_b1000#74",
        "*ep_b1000#75",
        "*ep_b1000#76",
        "*ep_b0",
        "*ep_b1000#78",
        "*ep_b1000#79",
        "*ep_b1000#80",
        "*ep_b1000#81",
        "*ep_b1000#82",
        "*ep_b1000#83",
        "*ep_b1000#84",
        "*ep_b1000#85",
        "*ep_b1000#86",
        "*ep_b0",
        "*ep_b1000#88",
        "*ep_b1000#89",
        "*ep_b1000#90",
        "*ep_b1000#91",
        "*ep_b1000#92",
        "*ep_b1000#93",
        "*ep_b1000#94",
        "*ep_b1000#95",
        "*ep_b1000#96",
        "*ep_b0",
        "*ep_b1000#98",
        "*ep_b1000#99",
        "*ep_b1000#100",
        "*ep_b1000#101",
        "*ep_b1000#102",
        "*ep_b1000#103",
        "*ep_b1000#104",
        "*ep_b1000#105",
        "*ep_b1000#106"
      ],
      "WindowCenter": [
        226,
        223,
        99,
        103,
        100,
        102,
        101,
        100,
        101,
        98,
        102,
        221,
        102,
        99,
        99,
        101,
        101,
        99,
        101,
        102,
        100,
        101,
        221,
        100,
        102,
        99,
        100,
        101,
        99,
        101,
        99,
        100,
        102,
        219,
        101,
        100,
        98,
        102,
        99,
        101,
        101,
        100,
        100,
        102,
        218,
        99,
        99,
        102,
        100,
        100,
        99,
        100,
        100,
        100,
        101,
        222,
        101,
        98,
        100,
        99,
        102,
        101,
        100,
        100,
        100,
        100,
        230,
        100,
        102,
        101,
        100,
        100,
        100,
        101,
        100,
        101,
        99,
        228,
        101,
        100,
        101,
        100,
        101,
        99,
        101,
        101,
        99,
        223,
        99,
        101,
        102,
        101,
        101,
        99,
        102,
        101,
        101,
        221,
        101,
        100,
        99,
        101,
        101,
        101,
        99,
        101,
        99
      ],
      "WindowWidth": [
        535,
        531,
        252,
        260,
        254,
        258,
        255,
        254,
        258,
        249,
        258,
        526,
        259,
        252,
        252,
        256,
        256,
        251,
        256,
        258,
        253,
        256,
        526,
        254,
        259,
        252,
        254,
        257,
        251,
        256,
        251,
        254,
        260,
        522,
        256,
        254,
        250,
        258,
        252,
        256,
        256,
        254,
        253,
        259,
        520,
        252,
        252,
        259,
        255,
        254,
        252,
        254,
        254,
        254,
        256,
        529,
        257,
        250,
        254,
        252,
        260,
        256,
        254,
        254,
        254,
        254,
        541,
        253,
        259,
        255,
        254,
        253,
        253,
        256,
        253,
        256,
        252,
        536,
        257,
        254,
        257,
        253,
        257,
        252,
        257,
        255,
        252,
        529,
        253,
        255,
        258,
        255,
        256,
        252,
        259,
        256,
        255,
        524,
        256,
        254,
        252,
        255,
        256,
        256,
        252,
        256,
        252
      ]
    },
    "slices": {}
  }
}
