{
  "AcquisitionMatrixPE": 96,
  "AcquisitionNumber": 1,
  "AcquisitionTime": "09:10:22.475000",
  "BandwidthPerPixelPhaseEncode": 18.939,
  "BaseResolution": 96,
  "BodyPartExamined": "BRAIN",
  "ConsistencyInfo": "N4_VE11C_LATEST_20160120",
  "ConversionSoftware": "dcm2niix",
  "ConversionSoftwareVersion": "v1.0.20170923 (OpenJPEG build) GCC6.3.0",
  "DerivedVendorReportedEchoSpacing": 0.000550011,
  "DeviceSerialNumber": "66112",
  "DwellTime": 2.2e-06,
  "EchoTime": 0.033,
  "EchoTrainLength": 96,
  "EffectiveEchoSpacing": 0.000550011,
  "FlipAngle": 59,
  "ImageType": [
    "ORIGINAL",
    "PRIMARY",
    "FMRI",
    "NONE",
    "ND",
    "NORM",
    "MOSAIC"
],
  "InstitutionAddress": "Maynard_3_Hanover_NH_US_03755",
  "InstitutionName": "Dartmouth_College_-_PBS",
  "MagneticFieldStrength": 3,
  "Manufacturer": "Siemens",
  "ManufacturersModelName": "Prisma",
  "Modality": "MR",
  "MultibandAccelerationFactor": 4,
  "PartialFourier": 1,
  "PercentPhaseFOV": 100,
  "PhaseEncodingDirection": "j-",
  "PhaseEncodingSteps": 96,
  "PhaseResolution": 1,
  "ProcedureStepDescription": "Gobbini_Matteo_1038_hyperface",
  "ProtocolName": "func_run-04_task-visualmemory",
  "PulseSequenceDetails": "%SiemensSeq%_ep2d_bold",
  "ReceiveCoilActiveElements": "HEA;HEP",
  "ReceiveCoilName": "Head_32",
  "ReconMatrixPE": 96,
  "RepetitionTime": 1,
  "ScanOptions": "FS",
  "ScanningSequence": "EP",
  "SequenceName": "_epfid2d1_96",
  "SequenceVariant": "SK",
  "SeriesDescription": "func_run-04_task-visualmemory",
  "SliceTiming": [0.735, 0, 0.49, 0.08, 0.57, 0.1625, 0.6525, 0.325, 0.815, 0.4075, 0.8975, 0.245, 0.735, 0, 0.49, 0.08, 0.57, 0.1625, 0.6525, 0.325, 0.815, 0.4075, 0.8975, 0.245, 0.735, 0, 0.49, 0.08, 0.57, 0.1625, 0.6525, 0.325, 0.815, 0.4075, 0.8975, 0.245, 0.735, 0, 0.49, 0.08, 0.57, 0.1625, 0.6525, 0.325, 0.815, 0.4075, 0.8975, 0.245],
  "SoftwareVersions": "syngo_MR_E11",
  "StationName": "AWP66112",
  "TotalReadoutTime": 0.0522511,
  "dcmmeta_affine": [
    [-2.499285936355591, -0.05715314298868179, -0.017417434602975845, 126.14576721191406],
    [-0.057159487158060074, 2.4993462562561035, 0.0007119124056771398, -104.74909973144531],
    [-0.017396604642271996, -0.00110993767157197, 2.499939203262329, -47.61795425415039],
    [0.0, 0.0, 0.0, 1.0]
],
  "dcmmeta_reorient_transform": [
    [0.0, -1.0, 0.0, 95.0],
    [1.0, 0.0, 0.0, 0.0],
    [0.0, 0.0, 1.0, 0.0],
    [0.0, 0.0, 0.0, 1.0]
],
  "dcmmeta_shape": [96, 96, 48, 288],
  "dcmmeta_slice_dim": 2,
  "dcmmeta_version": 0.6,
  "global": {
    "const": {
      "AccessionNumber": "A001149",
      "AcquisitionMatrix": [96, 0, 0, 96],
      "AngioFlag": "N",
      "BitsAllocated": 16,
      "BitsStored": 12,
      "BodyPartExamined": "BRAIN",
      "Columns": 672,
      "EchoNumbers": 1,
      "EchoTime": 33.0,
      "EchoTrainLength": 96,
      "FlipAngle": 59.0,
      "HighBit": 11,
      "ImageOrientationPatient": [0.99971437130224, 0.02286379486794, -0.0069586418223, -0.0228612574671, 0.99973854871819, 0.00044397507976],
      "ImagePositionPatient": [-824.05045870013, -868.96249487272, -43.032837406998],
      "ImageType": [
        "ORIGINAL",
        "PRIMARY",
        "FMRI",
        "NONE",
        "ND",
        "NORM",
        "MOSAIC"
],
      "ImagedNucleus": "1H",
      "ImagingFrequency": 123.252295,
      "InPlanePhaseEncodingDirection": "COL",
      "MRAcquisitionType": "2D",
      "MagneticFieldStrength": 3.0,
      "Manufacturer": "SIEMENS",
      "ManufacturerModelName": "Prisma",
      "Modality": "MR",
      "NumberOfAverages": 1.0,
      "NumberOfPhaseEncodingSteps": 96,
      "PercentPhaseFieldOfView": 100.0,
      "PercentSampling": 100.0,
      "PerformedProcedureStepStartTime": "084206.738000",
      "PhotometricInterpretation": "MONOCHROME2",
      "PixelBandwidth": 2365.0,
      "PixelRepresentation": 0,
      "PixelSpacing": [2.5, 2.5],
      "PositionReferenceIndicator": "",
      "ProtocolName": "func_run-04_task-visualmemory",
      "RepetitionTime": 1000.0,
      "Rows": 672,
      "SAR": 0.05366269282021,
      "SamplesPerPixel": 1,
      "ScanOptions": "FS",
      "ScanningSequence": "EP",
      "SequenceName": "*epfid2d1_96",
      "SequenceVariant": "SK",
      "SeriesDescription": "func_run-04_task-visualmemory",
      "SeriesNumber": 29,
      "SeriesTime": "091023.265000",
      "SliceLocation": -48.52547884735,
      "SliceThickness": 2.5,
      "SmallestImagePixelValue": 0,
      "SoftwareVersions": "syngo MR E11",
      "SpacingBetweenSlices": 2.5000000650135,
      "SpecificCharacterSet": "ISO_IR 100",
      "StudyID": "1",
      "StudyTime": "084206.617000",
      "TransmitCoilName": "Body",
      "VariableFlipAngleFlag": "N",
      "WindowCenterWidthExplanation": "Algo1",
      "dBdt": 0.0},
    "slices": {}
  },
  "time": {
    "samples": {
      "AcquisitionNumber": [1, 2, 3, 4, 5, 6, 7, 8, 9, 10, 11, 12, 13, 14, 15, 16, 17, 18, 19, 20, 21, 22, 23, 24, 25, 26, 27, 28, 29, 30, 31, 32, 33, 34, 35, 36, 37, 38, 39, 40, 41, 42, 43, 44, 45, 46, 47, 48, 49, 50, 51, 52, 53, 54, 55, 56, 57, 58, 59, 60, 61, 62, 63, 64, 65, 66, 67, 68, 69, 70, 71, 72, 73, 74, 75, 76, 77, 78, 79, 80, 81, 82, 83, 84, 85, 86, 87, 88, 89, 90, 91, 92, 93, 94, 95, 96, 97, 98, 99, 100, 101, 102, 103, 104, 105, 106, 107, 108, 109, 110, 111, 112, 113, 114, 115, 116, 117, 118, 119, 120, 121, 122, 123, 124, 125, 126, 127, 128, 129, 130, 131, 132, 133, 134, 135, 136, 137, 138, 139, 140, 141, 142, 143, 144, 145, 146, 147, 148, 149, 150, 151, 152, 153, 154, 155, 156, 157, 158, 159, 160, 161, 162, 163, 164, 165, 166, 167, 168, 169, 170, 171, 172, 173, 174, 175, 176, 177, 178, 179, 180, 181, 182, 183, 184, 185, 186, 187, 188, 189, 190, 191, 192, 193, 194, 195, 196, 197, 198, 199, 200, 201, 202, 203, 204, 205, 206, 207, 208, 209, 210, 211, 212, 213, 214, 215, 216, 217, 218, 219, 220, 221, 222, 223, 224, 225, 226, 227, 228, 229, 230, 231, 232, 233, 234, 235, 236, 237, 238, 239, 240, 241, 242, 243, 244, 245, 246, 247, 248, 249, 250, 251, 252, 253, 254, 255, 256, 257, 258, 259, 260, 261, 262, 263, 264, 265, 266, 267, 268, 269, 270, 271, 272, 273, 274, 275, 276, 277, 278, 279, 280, 281, 282, 283, 284, 285, 286, 287, 288],
      "AcquisitionTime": ["091022.475000", "091023.475000", "091024.475000", "091025.475000", "091026.475000", "091027.475000", "091028.475000", "091029.475000", "091030.475000", "091031.475000", "091032.475000", "091033.475000", "091034.475000", "091035.475000", "091036.475000", "091037.475000", "091038.475000", "091039.475000", "091040.475000", "091041.475000", "091042.475000", "091043.475000", "091044.475000", "091045.475000", "091046.475000", "091047.475000", "091048.475000", "091049.475000", "091050.475000", "091051.475000", "091052.475000", "091053.475000", "091054.475000", "091055.475000", "091056.475000", "091057.475000", "091058.475000", "091059.475000", "091100.475000", "091101.475000", "091102.475000", "091103.475000", "091104.475000", "091105.475000", "091106.475000", "091107.475000", "091108.475000", "091109.475000", "091110.475000", "091111.475000", "091112.475000", "091113.475000", "091114.475000", "091115.475000", "091116.475000", "091117.475000", "091118.475000", "091119.475000", "091120.475000", "091121.475000", "091122.475000", "091123.475000", "091124.475000", "091125.475000", "091126.475000", "091127.475000", "091128.475000", "091129.475000", "091130.475000", "091131.475000", "091132.475000", "091133.475000", "091134.475000", "091135.475000", "091136.475000", "091137.475000", "091138.475000", "091139.475000", "091140.475000", "091141.475000", "091142.475000", "091143.475000", "091144.475000", "091145.475000", "091146.475000", "091147.475000", "091148.475000", "091149.475000", "091150.475000", "091151.475000", "091152.475000", "091153.475000", "091154.475000", "091155.475000", "091156.475000", "091157.475000", "091158.475000", "091159.475000", "091200.475000", "091201.475000", "091202.475000", "091203.475000", "091204.475000", "091205.475000", "091206.475000", "091207.475000", "091208.475000", "091209.475000", "091210.475000", "091211.475000", "091212.475000", "091213.475000", "091214.475000", "091215.475000", "091216.475000", "091217.475000", "091218.475000", "091219.475000", "091220.475000", "091221.475000", "091222.475000", "091223.475000", "091224.475000", "091225.475000", "091226.475000", "091227.475000", "091228.475000", "091229.475000", "091230.475000", "091231.475000", "091232.475000", "091233.475000", "091234.475000", "091235.475000", "091236.475000", "091237.475000", "091238.475000", "091239.475000", "091240.475000", "091241.475000", "091242.475000", "091243.475000", "091244.475000", "091245.475000", "091246.475000", "091247.475000", "091248.475000", "091249.475000", "091250.475000", "091251.475000", "091252.475000", "091253.475000", "091254.475000", "091255.475000", "091256.475000", "091257.475000", "091258.475000", "091259.475000", "091300.475000", "091301.475000", "091302.475000", "091303.475000", "091304.475000", "091305.475000", "091306.475000", "091307.475000", "091308.475000", "091309.475000", "091310.475000", "091311.475000", "091312.475000", "091313.475000", "091314.475000", "091315.475000", "091316.475000", "091317.475000", "091318.475000", "091319.475000", "091320.475000", "091321.475000", "091322.475000", "091323.475000", "091324.475000", "091325.475000", "091326.475000", "091327.475000", "091328.475000", "091329.475000", "091330.475000", "091331.475000", "091332.475000", "091333.475000", "091334.475000", "091335.475000", "091336.475000", "091337.475000", "091338.475000", "091339.475000", "091340.475000", "091341.475000", "091342.475000", "091343.475000", "091344.475000", "091345.475000", "091346.475000", "091347.475000", "091348.475000", "091349.475000", "091350.475000", "091351.475000", "091352.475000", "091353.475000", "091354.475000", "091355.475000", "091356.475000", "091357.475000", "091358.475000", "091359.475000", "091400.475000", "091401.475000", "091402.475000", "091403.475000", "091404.475000", "091405.475000", "091406.475000", "091407.475000", "091408.475000", "091409.475000", "091410.475000", "091411.475000", "091412.475000", "091413.475000", "091414.475000", "091415.475000", "091416.475000", "091417.475000", "091418.475000", "091419.475000", "091420.475000", "091421.475000", "091422.475000", "091423.475000", "091424.475000", "091425.475000", "091426.475000", "091427.475000", "091428.475000", "091429.475000", "091430.475000", "091431.475000", "091432.475000", "091433.475000", "091434.475000", "091435.475000", "091436.475000", "091437.475000", "091438.475000", "091439.475000", "091440.475000", "091441.475000", "091442.475000", "091443.475000", "091444.475000", "091445.475000", "091446.475000", "091447.475000", "091448.475000", "091449.475000", "091450.475000", "091451.475000", "091452.475000", "091453.475000", "091454.475000", "091455.475000", "091456.475000", "091457.475000", "091458.475000", "091459.475000", "091500.475000", "091501.475000", "091502.475000", "091503.475000", "091504.475000", "091505.475000", "091506.475000", "091507.475000", "091508.475000", "091509.475000"],
      "ContentTime": ["091023.268000", "091024.128000", "091025.147000", "091026.142000", "091027.133000", "091028.150000", "091029.134000", "091030.114000", "091031.152000", "091032.146000", "091033.134000", "091034.124000", "091035.140000", "091036.218000", "091037.131000", "091038.118000", "091039.120000", "091040.137000", "091041.156000", "091042.153000", "091043.122000", "091044.180000", "091045.163000", "091046.129000", "091047.154000", "091048.126000", "091049.183000", "091050.130000", "091051.157000", "091052.147000", "091053.141000", "091054.136000", "091055.144000", "091056.127000", "091057.138000", "091058.131000", "091059.170000", "091100.210000", "091101.123000", "091102.138000", "091103.155000", "091104.146000", "091105.145000", "091106.134000", "091107.127000", "091108.145000", "091109.143000", "091110.148000", "091111.110000", "091112.117000", "091113.150000", "091114.131000", "091115.112000", "091116.184000", "091117.136000", "091118.126000", "091119.142000", "091120.119000", "091121.138000", "091122.123000", "091123.148000", "091124.127000", "091125.137000", "091126.150000", "091127.105000", "091128.108000", "091129.136000", "091130.124000", "091131.125000", "091132.131000", "091133.163000", "091134.133000", "091135.135000", "091136.117000", "091137.126000", "091138.088000", "091139.130000", "091140.137000", "091141.111000", "091142.135000", "091143.131000", "091144.106000", "091145.199000", "091146.157000", "091147.153000", "091148.193000", "091149.146000", "091150.152000", "091151.139000", "091152.138000", "091153.141000", "091154.157000", "091155.138000", "091156.158000", "091157.191000", "091158.107000", "091159.125000", "091200.125000", "091201.158000", "091202.115000", "091203.163000", "091204.124000", "091205.167000", "091206.143000", "091207.148000", "091208.172000", "091209.210000", "091210.197000", "091211.178000", "091212.199000", "091213.144000", "091214.121000", "091215.179000", "091216.173000", "091217.183000", "091218.124000", "091219.165000", "091220.115000", "091221.186000", "091222.142000", "091223.137000", "091224.144000", "091225.157000", "091226.144000", "091227.142000", "091228.137000", "091229.131000", "091230.149000", "091231.126000", "091232.144000", "091233.124000", "091234.136000", "091235.135000", "091236.145000", "091237.157000", "091238.158000", "091239.134000", "091240.136000", "091241.141000", "091242.181000", "091243.126000", "091244.130000", "091245.136000", "091246.144000", "091247.212000", "091248.159000", "091249.106000", "091250.154000", "091251.135000", "091252.215000", "091253.153000", "091254.142000", "091255.140000", "091256.136000", "091257.145000", "091258.147000", "091259.128000", "091300.163000", "091301.141000", "091302.101000", "091303.138000", "091304.127000", "091305.139000", "091306.146000", "091307.149000", "091308.141000", "091309.146000", "091310.135000", "091311.127000", "091312.119000", "091313.142000", "091314.141000", "091315.189000", "091316.153000", "091317.154000", "091318.155000", "091319.110000", "091320.119000", "091321.185000", "091322.158000", "091323.122000", "091324.151000", "091325.136000", "091326.131000", "091327.153000", "091328.121000", "091329.123000", "091330.131000", "091331.136000", "091332.134000", "091333.133000", "091334.145000", "091335.129000", "091336.142000", "091337.128000", "091338.144000", "091339.155000", "091340.139000", "091341.125000", "091342.129000", "091343.109000", "091344.172000", "091345.125000", "091346.128000", "091347.145000", "091348.123000", "091349.126000", "091350.142000", "091351.142000", "091352.150000", "091353.131000", "091354.137000", "091355.113000", "091356.142000", "091357.157000", "091358.142000", "091359.154000", "091400.129000", "091401.150000", "091402.124000", "091403.120000", "091404.132000", "091405.125000", "091406.133000", "091407.132000", "091408.147000", "091409.118000", "091410.140000", "091411.145000", "091412.144000", "091413.176000", "091414.128000", "091415.146000", "091416.169000", "091417.122000", "091418.143000", "091419.142000", "091420.115000", "091421.149000", "091422.120000", "091423.120000", "091424.142000", "091425.133000", "091426.135000", "091427.146000", "091428.108000", "091429.121000", "091430.145000", "091431.144000", "091432.186000", "091433.150000", "091434.148000", "091435.144000", "091436.136000", "091437.136000", "091438.159000", "091439.155000", "091440.144000", "091441.153000", "091442.142000", "091443.135000", "091444.131000", "091445.123000", "091446.132000", "091447.144000", "091448.121000", "091449.140000", "091450.152000", "091451.145000", "091452.208000", "091453.160000", "091454.174000", "091455.145000", "091456.126000", "091457.181000", "091458.151000", "091459.141000", "091500.120000", "091501.147000", "091502.144000", "091503.142000", "091504.133000", "091505.153000", "091506.138000", "091507.129000", "091508.189000", "091509.153000", "091510.187000"],
      "InstanceCreationTime": ["091023.268000", "091024.128000", "091025.147000", "091026.142000", "091027.133000", "091028.150000", "091029.134000", "091030.114000", "091031.152000", "091032.146000", "091033.134000", "091034.124000", "091035.140000", "091036.218000", "091037.131000", "091038.118000", "091039.120000", "091040.137000", "091041.156000", "091042.153000", "091043.122000", "091044.180000", "091045.163000", "091046.129000", "091047.154000", "091048.126000", "091049.183000", "091050.130000", "091051.157000", "091052.147000", "091053.141000", "091054.136000", "091055.144000", "091056.127000", "091057.138000", "091058.131000", "091059.170000", "091100.210000", "091101.123000", "091102.138000", "091103.155000", "091104.146000", "091105.145000", "091106.134000", "091107.127000", "091108.145000", "091109.143000", "091110.148000", "091111.110000", "091112.117000", "091113.150000", "091114.131000", "091115.112000", "091116.184000", "091117.136000", "091118.126000", "091119.142000", "091120.119000", "091121.138000", "091122.123000", "091123.148000", "091124.127000", "091125.137000", "091126.150000", "091127.105000", "091128.108000", "091129.136000", "091130.124000", "091131.125000", "091132.131000", "091133.163000", "091134.133000", "091135.135000", "091136.117000", "091137.126000", "091138.088000", "091139.130000", "091140.137000", "091141.111000", "091142.135000", "091143.131000", "091144.106000", "091145.199000", "091146.157000", "091147.153000", "091148.193000", "091149.146000", "091150.152000", "091151.139000", "091152.138000", "091153.141000", "091154.157000", "091155.138000", "091156.158000", "091157.191000", "091158.107000", "091159.125000", "091200.125000", "091201.158000", "091202.115000", "091203.163000", "091204.124000", "091205.167000", "091206.143000", "091207.148000", "091208.172000", "091209.210000", "091210.197000", "091211.178000", "091212.199000", "091213.144000", "091214.121000", "091215.179000", "091216.173000", "091217.183000", "091218.124000", "091219.165000", "091220.115000", "091221.186000", "091222.142000", "091223.137000", "091224.144000", "091225.157000", "091226.144000", "091227.142000", "091228.137000", "091229.131000", "091230.149000", "091231.126000", "091232.144000", "091233.124000", "091234.136000", "091235.135000", "091236.145000", "091237.157000", "091238.158000", "091239.134000", "091240.136000", "091241.141000", "091242.181000", "091243.126000", "091244.130000", "091245.136000", "091246.144000", "091247.212000", "091248.159000", "091249.106000", "091250.154000", "091251.135000", "091252.215000", "091253.153000", "091254.142000", "091255.140000", "091256.136000", "091257.145000", "091258.147000", "091259.128000", "091300.163000", "091301.141000", "091302.101000", "091303.138000", "091304.127000", "091305.139000", "091306.146000", "091307.149000", "091308.141000", "091309.146000", "091310.135000", "091311.127000", "091312.119000", "091313.142000", "091314.141000", "091315.189000", "091316.153000", "091317.154000", "091318.155000", "091319.110000", "091320.119000", "091321.185000", "091322.158000", "091323.122000", "091324.151000", "091325.136000", "091326.131000", "091327.153000", "091328.121000", "091329.123000", "091330.131000", "091331.136000", "091332.134000", "091333.133000", "091334.145000", "091335.129000", "091336.142000", "091337.128000", "091338.144000", "091339.155000", "091340.139000", "091341.125000", "091342.129000", "091343.109000", "091344.172000", "091345.125000", "091346.128000", "091347.145000", "091348.123000", "091349.126000", "091350.142000", "091351.142000", "091352.150000", "091353.131000", "091354.137000", "091355.113000", "091356.142000", "091357.157000", "091358.142000", "091359.154000", "091400.129000", "091401.150000", "091402.124000", "091403.120000", "091404.132000", "091405.125000", "091406.133000", "091407.132000", "091408.147000", "091409.118000", "091410.140000", "091411.145000", "091412.144000", "091413.176000", "091414.128000", "091415.146000", "091416.169000", "091417.122000", "091418.143000", "091419.142000", "091420.115000", "091421.149000", "091422.120000", "091423.120000", "091424.142000", "091425.133000", "091426.135000", "091427.146000", "091428.108000", "091429.121000", "091430.145000", "091431.144000", "091432.186000", "091433.150000", "091434.148000", "091435.144000", "091436.136000", "091437.136000", "091438.159000", "091439.155000", "091440.144000", "091441.153000", "091442.142000", "091443.135000", "091444.131000", "091445.123000", "091446.132000", "091447.144000", "091448.121000", "091449.140000", "091450.152000", "091451.145000", "091452.208000", "091453.160000", "091454.174000", "091455.145000", "091456.126000", "091457.181000", "091458.151000", "091459.141000", "091500.120000", "091501.147000", "091502.144000", "091503.142000", "091504.133000", "091505.153000", "091506.138000", "091507.129000", "091508.189000", "091509.153000", "091510.187000"],
      "InstanceNumber": [1, 2, 3, 4, 5, 6, 7, 8, 9, 10, 11, 12, 13, 14, 15, 16, 17, 18, 19, 20, 21, 22, 23, 24, 25, 26, 27, 28, 29, 30, 31, 32, 33, 34, 35, 36, 37, 38, 39, 40, 41, 42, 43, 44, 45, 46, 47, 48, 49, 50, 51, 52, 53, 54, 55, 56, 57, 58, 59, 60, 61, 62, 63, 64, 65, 66, 67, 68, 69, 70, 71, 72, 73, 74, 75, 76, 77, 78, 79, 80, 81, 82, 83, 84, 85, 86, 87, 88, 89, 90, 91, 92, 93, 94, 95, 96, 97, 98, 99, 100, 101, 102, 103, 104, 105, 106, 107, 108, 109, 110, 111, 112, 113, 114, 115, 116, 117, 118, 119, 120, 121, 122, 123, 124, 125, 126, 127, 128, 129, 130, 131, 132, 133, 134, 135, 136, 137, 138, 139, 140, 141, 142, 143, 144, 145, 146, 147, 148, 149, 150, 151, 152, 153, 154, 155, 156, 157, 158, 159, 160, 161, 162, 163, 164, 165, 166, 167, 168, 169, 170, 171, 172, 173, 174, 175, 176, 177, 178, 179, 180, 181, 182, 183, 184, 185, 186, 187, 188, 189, 190, 191, 192, 193, 194, 195, 196, 197, 198, 199, 200, 201, 202, 203, 204, 205, 206, 207, 208, 209, 210, 211, 212, 213, 214, 215, 216, 217, 218, 219, 220, 221, 222, 223, 224, 225, 226, 227, 228, 229, 230, 231, 232, 233, 234, 235, 236, 237, 238, 239, 240, 241, 242, 243, 244, 245, 246, 247, 248, 249, 250, 251, 252, 253, 254, 255, 256, 257, 258, 259, 260, 261, 262, 263, 264, 265, 266, 267, 268, 269, 270, 271, 272, 273, 274, 275, 276, 277, 278, 279, 280, 281, 282, 283, 284, 285, 286, 287, 288],
      "LargestImagePixelValue": [934, 1480, 1209, 1395, 1194, 1124, 939, 1382, 1394, 1204, 1511, 1399, 904, 865, 882, 806, 993, 1191, 1091, 1518, 1430, 1123, 1028, 913, 1148, 803, 966, 1225, 1679, 1315, 1166, 1355, 969, 1416, 1463, 1023, 844, 1038, 1467, 1727, 1091, 1291, 977, 944, 1178, 1498, 1003, 874, 1513, 1453, 1552, 1152, 799, 801, 1216, 1251, 1185, 1036, 1189, 871, 1445, 1581, 976, 802, 824, 1235, 1513, 1049, 1319, 1423, 1423, 839, 1150, 998, 1320, 792, 1057, 1398, 1430, 1054, 1245, 1587, 1052, 1069, 1385, 1314, 833, 965, 1492, 1134, 859, 1140, 1465, 1201, 879, 777, 1364, 1029, 1533, 1100, 1260, 1407, 1584, 973, 957, 864, 1576, 1151, 898, 789, 1327, 1698, 1114, 983, 1418, 1319, 1232, 831, 1032, 1197, 1536, 1042, 1381, 1578, 962, 1446, 1452, 1262, 843, 785, 1204, 1655, 1048, 824, 1209, 1732, 1204, 894, 1306, 1344, 1382, 884, 1327, 1343, 1541, 1015, 1233, 1643, 949, 1232, 1174, 1462, 987, 768, 1109, 1613, 991, 802, 1344, 1471, 884, 1286, 1575, 1168, 830, 1279, 1529, 947, 1020, 934, 1530, 981, 850, 1041, 1760, 1118, 908, 1408, 1256, 1314, 889, 821, 850, 1474, 1384, 1027, 1092, 1459, 1488, 1090, 930, 856, 806, 796, 1135, 798, 1327, 1597, 1311, 1036, 1169, 1124, 798, 917, 1442, 1427, 1511, 1171, 1057, 917, 915, 1084, 813, 1063, 1160, 1026, 1356, 1712, 1144, 964, 972, 922, 812, 1101, 1286, 1191, 1735, 1271, 1151, 1139, 1593, 1346, 910, 971, 827, 1368, 1360, 878, 787, 1280, 1405, 1592, 1003, 1027, 1450, 1665, 1024, 866, 780, 789, 917, 1156, 1565, 1455, 1190, 1412, 1727, 1035, 807, 1002, 1357, 1286, 1269, 1015, 871, 863, 1032, 1372, 921, 1426, 1631, 1074, 850, 905, 1061, 862, 1209, 1568, 1456, 1178, 1203, 1340, 1047, 1052, 1455, 1581, 1193, 1030],
      "WindowCenter": [396.0, 399.0, 396.0, 398.0, 397.0, 396.0, 395.0, 397.0, 397.0, 396.0, 397.0, 396.0, 393.0, 393.0, 393.0, 393.0, 395.0, 396.0, 396.0, 398.0, 397.0, 396.0, 395.0, 395.0, 396.0, 394.0, 396.0, 398.0, 400.0, 398.0, 397.0, 397.0, 394.0, 398.0, 398.0, 395.0, 394.0, 396.0, 398.0, 399.0, 395.0, 396.0, 394.0, 393.0, 396.0, 398.0, 395.0, 393.0, 397.0, 397.0, 397.0, 394.0, 392.0, 392.0, 395.0, 395.0, 395.0, 395.0, 396.0, 394.0, 397.0, 397.0, 393.0, 391.0, 393.0, 396.0, 398.0, 396.0, 397.0, 397.0, 397.0, 392.0, 395.0, 394.0, 397.0, 393.0, 396.0, 398.0, 398.0, 395.0, 396.0, 398.0, 395.0, 394.0, 397.0, 397.0, 393.0, 395.0, 398.0, 396.0, 394.0, 396.0, 398.0, 396.0, 394.0, 393.0, 397.0, 395.0, 398.0, 396.0, 396.0, 397.0, 397.0, 394.0, 393.0, 393.0, 397.0, 396.0, 393.0, 392.0, 397.0, 399.0, 396.0, 394.0, 396.0, 396.0, 395.0, 393.0, 395.0, 396.0, 398.0, 395.0, 397.0, 397.0, 393.0, 396.0, 396.0, 395.0, 392.0, 392.0, 395.0, 398.0, 395.0, 393.0, 396.0, 399.0, 396.0, 394.0, 396.0, 396.0, 397.0, 394.0, 397.0, 397.0, 398.0, 394.0, 396.0, 397.0, 393.0, 395.0, 394.0, 396.0, 393.0, 391.0, 394.0, 397.0, 394.0, 392.0, 396.0, 397.0, 393.0, 395.0, 396.0, 394.0, 392.0, 394.0, 397.0, 393.0, 394.0, 394.0, 398.0, 395.0, 394.0, 396.0, 400.0, 396.0, 394.0, 397.0, 396.0, 396.0, 394.0, 394.0, 394.0, 399.0, 397.0, 395.0, 395.0, 396.0, 396.0, 394.0, 392.0, 392.0, 391.0, 392.0, 395.0, 392.0, 397.0, 398.0, 396.0, 394.0, 394.0, 394.0, 392.0, 393.0, 396.0, 396.0, 397.0, 394.0, 394.0, 393.0, 393.0, 394.0, 393.0, 395.0, 396.0, 395.0, 398.0, 399.0, 396.0, 395.0, 396.0, 396.0, 395.0, 398.0, 399.0, 398.0, 399.0, 397.0, 396.0, 395.0, 398.0, 396.0, 393.0, 393.0, 392.0, 396.0, 397.0, 394.0, 393.0, 397.0, 398.0, 399.0, 395.0, 395.0, 397.0, 397.0, 394.0, 392.0, 392.0, 392.0, 395.0, 397.0, 400.0, 398.0, 396.0, 396.0, 397.0, 394.0, 391.0, 393.0, 395.0, 395.0, 395.0, 394.0, 393.0, 394.0, 395.0, 397.0, 394.0, 397.0, 398.0, 394.0, 393.0, 393.0, 395.0, 393.0, 396.0, 399.0, 398.0, 397.0, 396.0, 397.0, 395.0, 395.0, 397.0, 398.0, 396.0, 395.0],
      "WindowWidth": [841.0, 843.0, 840.0, 842.0, 840.0, 839.0, 838.0, 841.0, 841.0, 839.0, 840.0, 839.0, 834.0, 834.0, 835.0, 835.0, 838.0, 840.0, 838.0, 841.0, 841.0, 839.0, 838.0, 837.0, 839.0, 836.0, 839.0, 842.0, 845.0, 842.0, 840.0, 841.0, 836.0, 842.0, 841.0, 837.0, 836.0, 838.0, 842.0, 844.0, 838.0, 839.0, 835.0, 835.0, 838.0, 841.0, 837.0, 835.0, 840.0, 840.0, 840.0, 836.0, 832.0, 832.0, 837.0, 837.0, 838.0, 838.0, 839.0, 836.0, 841.0, 841.0, 835.0, 832.0, 834.0, 839.0, 842.0, 839.0, 840.0, 840.0, 840.0, 833.0, 836.0, 836.0, 840.0, 835.0, 839.0, 843.0, 842.0, 838.0, 839.0, 842.0, 837.0, 836.0, 840.0, 840.0, 835.0, 837.0, 842.0, 839.0, 837.0, 839.0, 842.0, 839.0, 837.0, 835.0, 840.0, 838.0, 842.0, 839.0, 839.0, 839.0, 840.0, 836.0, 834.0, 834.0, 840.0, 838.0, 835.0, 833.0, 840.0, 843.0, 839.0, 835.0, 839.0, 838.0, 837.0, 834.0, 837.0, 839.0, 842.0, 837.0, 840.0, 840.0, 835.0, 838.0, 838.0, 837.0, 833.0, 833.0, 838.0, 842.0, 838.0, 835.0, 839.0, 843.0, 839.0, 835.0, 839.0, 839.0, 840.0, 836.0, 840.0, 841.0, 842.0, 836.0, 838.0, 841.0, 834.0, 836.0, 835.0, 838.0, 835.0, 832.0, 836.0, 841.0, 836.0, 833.0, 838.0, 839.0, 834.0, 837.0, 839.0, 836.0, 833.0, 836.0, 840.0, 835.0, 835.0, 836.0, 842.0, 837.0, 837.0, 840.0, 845.0, 839.0, 836.0, 840.0, 839.0, 839.0, 836.0, 836.0, 837.0, 843.0, 841.0, 838.0, 837.0, 839.0, 839.0, 835.0, 833.0, 832.0, 831.0, 832.0, 837.0, 834.0, 840.0, 841.0, 838.0, 836.0, 836.0, 835.0, 832.0, 833.0, 838.0, 838.0, 839.0, 836.0, 836.0, 834.0, 835.0, 836.0, 834.0, 837.0, 838.0, 837.0, 841.0, 843.0, 839.0, 838.0, 839.0, 839.0, 838.0, 842.0, 843.0, 842.0, 845.0, 842.0, 839.0, 838.0, 841.0, 839.0, 834.0, 834.0, 834.0, 839.0, 841.0, 836.0, 836.0, 841.0, 842.0, 843.0, 838.0, 837.0, 840.0, 841.0, 836.0, 833.0, 832.0, 833.0, 837.0, 841.0, 845.0, 843.0, 839.0, 839.0, 841.0, 835.0, 831.0, 834.0, 837.0, 837.0, 837.0, 836.0, 835.0, 836.0, 838.0, 840.0, 836.0, 840.0, 842.0, 836.0, 834.0, 835.0, 837.0, 835.0, 839.0, 843.0, 842.0, 840.0, 840.0, 840.0, 837.0, 837.0, 841.0, 841.0, 840.0, 838.0]
    },
    "slices": {}
  }
}