{
  "AcquisitionMatrixPE": 96,
  "AcquisitionNumber": 1,
  "AcquisitionTime": "09:20:43.870000",
  "BandwidthPerPixelPhaseEncode": 18.939,
  "BaseResolution": 96,
  "BodyPartExamined": "BRAIN",
  "ConsistencyInfo": "N4_VE11C_LATEST_20160120",
  "ConversionSoftware": "dcm2niix",
  "ConversionSoftwareVersion": "v1.0.20170923 (OpenJPEG build) GCC6.3.0",
  "DerivedVendorReportedEchoSpacing": 0.000550011,
  "DeviceSerialNumber": "66112",
  "DwellTime": 2.2e-06,
  "EchoTime": 0.033,
  "EchoTrainLength": 96,
  "EffectiveEchoSpacing": 0.000550011,
  "FlipAngle": 59,
  "ImageType": [
    "ORIGINAL",
    "PRIMARY",
    "FMRI",
    "NONE",
    "ND",
    "NORM",
    "MOSAIC"
  ],
  "InstitutionAddress": "Maynard_3_Hanover_NH_US_03755",
  "InstitutionName": "Dartmouth_College_-_PBS",
  "MagneticFieldStrength": 3,
  "Manufacturer": "Siemens",
  "ManufacturersModelName": "Prisma",
  "Modality": "MR",
  "MultibandAccelerationFactor": 4,
  "PercentPhaseFOV": 100,
  "PhaseEncodingDirection": "j-",
  "PhaseEncodingSteps": 96,
  "PhaseResolution": 1,
  "ProcedureStepDescription": "Gobbini_Matteo_1038_hyperface",
  "ProtocolName": "func_run-06_task-visualmemory",
  "PulseSequenceDetails": "%SiemensSeq%_ep2d_bold",
  "ReceiveCoilActiveElements": "HEA;HEP",
  "ReceiveCoilName": "Head_32",
  "ReconMatrixPE": 96,
  "RepetitionTime": 1,
  "ScanOptions": "FS",
  "ScanningSequence": "EP",
  "SequenceName": "_epfid2d1_96",
  "SequenceVariant": "SK",
  "SeriesDescription": "func_run-06_task-visualmemory",
  "SliceTiming": [
    0.735,
    0,
    0.49,
    0.08,
    0.57,
    0.1625,
    0.6525,
    0.325,
    0.815,
    0.4075,
    0.8975,
    0.245,
    0.735,
    0,
    0.49,
    0.08,
    0.57,
    0.1625,
    0.6525,
    0.325,
    0.815,
    0.4075,
    0.8975,
    0.245,
    0.735,
    0,
    0.49,
    0.08,
    0.57,
    0.1625,
    0.6525,
    0.325,
    0.815,
    0.4075,
    0.8975,
    0.245,
    0.735,
    0,
    0.49,
    0.08,
    0.57,
    0.1625,
    0.6525,
    0.325,
    0.815,
    0.4075,
    0.8975,
    0.245
  ],
  "SoftwareVersions": "syngo_MR_E11",
  "StationName": "AWP66112",
  "TotalReadoutTime": 0.0522511,
  "dcmmeta_affine": [
    [
      -2.499285936355591,
      -0.05715314298868179,
      -0.017417434602975845,
      126.14576721191406
    ],
    [
      -0.057159487158060074,
      2.4993462562561035,
      0.0007119124056771398,
      -104.74909973144531
    ],
    [
      -0.017396604642271996,
      -0.00110993767157197,
      2.499939203262329,
      -47.61795425415039
    ],
    [
      0.0,
      0.0,
      0.0,
      1.0
    ]
  ],
  "dcmmeta_reorient_transform": [
    [
      0.0,
      -1.0,
      0.0,
      95.0
    ],
    [
      1.0,
      0.0,
      0.0,
      0.0
    ],
    [
      0.0,
      0.0,
      1.0,
      0.0
    ],
    [
      0.0,
      0.0,
      0.0,
      1.0
    ]
  ],
  "dcmmeta_shape": [
    96,
    96,
    48,
    288
  ],
  "dcmmeta_slice_dim": 2,
  "dcmmeta_version": 0.6,
  "global": {
    "const": {
      "AccessionNumber": "A001149",
      "AcquisitionMatrix": [
        96,
        0,
        0,
        96
      ],
      "AngioFlag": "N",
      "BitsAllocated": 16,
      "BitsStored": 12,
      "BodyPartExamined": "BRAIN",
      "Columns": 672,
      "EchoNumbers": 1,
      "EchoTime": 33.0,
      "EchoTrainLength": 96,
      "FlipAngle": 59.0,
      "HighBit": 11,
      "ImageOrientationPatient": [
        0.99971437130224,
        0.02286379486794,
        -0.0069586418223,
        -0.0228612574671,
        0.99973854871819,
        0.00044397507976
      ],
      "ImagePositionPatient": [
        -824.05045870013,
        -868.96249487272,
        -43.032837406998
      ],
      "ImageType": [
        "ORIGINAL",
        "PRIMARY",
        "FMRI",
        "NONE",
        "ND",
        "NORM",
        "MOSAIC"
      ],
      "ImagedNucleus": "1H",
      "ImagingFrequency": 123.252295,
      "InPlanePhaseEncodingDirection": "COL",
      "MRAcquisitionType": "2D",
      "MagneticFieldStrength": 3.0,
      "Manufacturer": "SIEMENS",
      "ManufacturerModelName": "Prisma",
      "Modality": "MR",
      "NumberOfAverages": 1.0,
      "NumberOfPhaseEncodingSteps": 96,
      "PercentPhaseFieldOfView": 100.0,
      "PercentSampling": 100.0,
      "PerformedProcedureStepStartTime": "084206.738000",
      "PhotometricInterpretation": "MONOCHROME2",
      "PixelBandwidth": 2365.0,
      "PixelRepresentation": 0,
      "PixelSpacing": [
        2.5,
        2.5
      ],
      "PositionReferenceIndicator": "",
      "ProtocolName": "func_run-06_task-visualmemory",
      "RepetitionTime": 1000.0,
      "Rows": 672,
      "SAR": 0.05366269282021,
      "SamplesPerPixel": 1,
      "ScanOptions": "FS",
      "ScanningSequence": "EP",
      "SequenceName": "*epfid2d1_96",
      "SequenceVariant": "SK",
      "SeriesDescription": "func_run-06_task-visualmemory",
      "SeriesNumber": 43,
      "SeriesTime": "092045.067000",
      "SliceLocation": -48.52547884735,
      "SliceThickness": 2.5,
      "SmallestImagePixelValue": 0,
      "SoftwareVersions": "syngo MR E11",
      "SpacingBetweenSlices": 2.5000000650135,
      "SpecificCharacterSet": "ISO_IR 100",
      "StudyID": "1",
      "StudyTime": "084206.617000",
      "TransmitCoilName": "Body",
      "VariableFlipAngleFlag": "N",
      "WindowCenterWidthExplanation": "Algo1",
      "dBdt": 0.0
    },
    "slices": {}
  },
  "time": {
    "samples": {
      "AcquisitionNumber": [
        1,
        2,
        3,
        4,
        5,
        6,
        7,
        8,
        9,
        10,
        11,
        12,
        13,
        14,
        15,
        16,
        17,
        18,
        19,
        20,
        21,
        22,
        23,
        24,
        25,
        26,
        27,
        28,
        29,
        30,
        31,
        32,
        33,
        34,
        35,
        36,
        37,
        38,
        39,
        40,
        41,
        42,
        43,
        44,
        45,
        46,
        47,
        48,
        49,
        50,
        51,
        52,
        53,
        54,
        55,
        56,
        57,
        58,
        59,
        60,
        61,
        62,
        63,
        64,
        65,
        66,
        67,
        68,
        69,
        70,
        71,
        72,
        73,
        74,
        75,
        76,
        77,
        78,
        79,
        80,
        81,
        82,
        83,
        84,
        85,
        86,
        87,
        88,
        89,
        90,
        91,
        92,
        93,
        94,
        95,
        96,
        97,
        98,
        99,
        100,
        101,
        102,
        103,
        104,
        105,
        106,
        107,
        108,
        109,
        110,
        111,
        112,
        113,
        114,
        115,
        116,
        117,
        118,
        119,
        120,
        121,
        122,
        123,
        124,
        125,
        126,
        127,
        128,
        129,
        130,
        131,
        132,
        133,
        134,
        135,
        136,
        137,
        138,
        139,
        140,
        141,
        142,
        143,
        144,
        145,
        146,
        147,
        148,
        149,
        150,
        151,
        152,
        153,
        154,
        155,
        156,
        157,
        158,
        159,
        160,
        161,
        162,
        163,
        164,
        165,
        166,
        167,
        168,
        169,
        170,
        171,
        172,
        173,
        174,
        175,
        176,
        177,
        178,
        179,
        180,
        181,
        182,
        183,
        184,
        185,
        186,
        187,
        188,
        189,
        190,
        191,
        192,
        193,
        194,
        195,
        196,
        197,
        198,
        199,
        200,
        201,
        202,
        203,
        204,
        205,
        206,
        207,
        208,
        209,
        210,
        211,
        212,
        213,
        214,
        215,
        216,
        217,
        218,
        219,
        220,
        221,
        222,
        223,
        224,
        225,
        226,
        227,
        228,
        229,
        230,
        231,
        232,
        233,
        234,
        235,
        236,
        237,
        238,
        239,
        240,
        241,
        242,
        243,
        244,
        245,
        246,
        247,
        248,
        249,
        250,
        251,
        252,
        253,
        254,
        255,
        256,
        257,
        258,
        259,
        260,
        261,
        262,
        263,
        264,
        265,
        266,
        267,
        268,
        269,
        270,
        271,
        272,
        273,
        274,
        275,
        276,
        277,
        278,
        279,
        280,
        281,
        282,
        283,
        284,
        285,
        286,
        287,
        288
      ],
      "AcquisitionTime": [
        "092043.870000",
        "092044.870000",
        "092045.870000",
        "092046.870000",
        "092047.870000",
        "092048.870000",
        "092049.870000",
        "092050.870000",
        "092051.870000",
        "092052.870000",
        "092053.870000",
        "092054.870000",
        "092055.870000",
        "092056.870000",
        "092057.870000",
        "092058.870000",
        "092059.870000",
        "092100.870000",
        "092101.870000",
        "092102.870000",
        "092103.870000",
        "092104.870000",
        "092105.870000",
        "092106.870000",
        "092107.870000",
        "092108.870000",
        "092109.870000",
        "092110.870000",
        "092111.870000",
        "092112.870000",
        "092113.870000",
        "092114.870000",
        "092115.870000",
        "092116.870000",
        "092117.870000",
        "092118.870000",
        "092119.870000",
        "092120.870000",
        "092121.870000",
        "092122.870000",
        "092123.870000",
        "092124.870000",
        "092125.870000",
        "092126.870000",
        "092127.870000",
        "092128.870000",
        "092129.870000",
        "092130.870000",
        "092131.870000",
        "092132.870000",
        "092133.870000",
        "092134.870000",
        "092135.870000",
        "092136.870000",
        "092137.870000",
        "092138.870000",
        "092139.870000",
        "092140.870000",
        "092141.870000",
        "092142.870000",
        "092143.870000",
        "092144.870000",
        "092145.870000",
        "092146.870000",
        "092147.870000",
        "092148.870000",
        "092149.870000",
        "092150.870000",
        "092151.870000",
        "092152.870000",
        "092153.870000",
        "092154.870000",
        "092155.870000",
        "092156.870000",
        "092157.870000",
        "092158.870000",
        "092159.870000",
        "092200.870000",
        "092201.870000",
        "092202.870000",
        "092203.870000",
        "092204.870000",
        "092205.870000",
        "092206.870000",
        "092207.870000",
        "092208.870000",
        "092209.870000",
        "092210.870000",
        "092211.870000",
        "092212.870000",
        "092213.870000",
        "092214.870000",
        "092215.870000",
        "092216.870000",
        "092217.870000",
        "092218.870000",
        "092219.870000",
        "092220.870000",
        "092221.870000",
        "092222.870000",
        "092223.870000",
        "092224.870000",
        "092225.870000",
        "092226.870000",
        "092227.870000",
        "092228.870000",
        "092229.870000",
        "092230.870000",
        "092231.870000",
        "092232.870000",
        "092233.870000",
        "092234.870000",
        "092235.870000",
        "092236.870000",
        "092237.870000",
        "092238.870000",
        "092239.870000",
        "092240.870000",
        "092241.870000",
        "092242.870000",
        "092243.870000",
        "092244.870000",
        "092245.870000",
        "092246.870000",
        "092247.870000",
        "092248.870000",
        "092249.870000",
        "092250.870000",
        "092251.870000",
        "092252.870000",
        "092253.870000",
        "092254.870000",
        "092255.870000",
        "092256.870000",
        "092257.870000",
        "092258.870000",
        "092259.870000",
        "092300.870000",
        "092301.870000",
        "092302.870000",
        "092303.870000",
        "092304.870000",
        "092305.870000",
        "092306.870000",
        "092307.870000",
        "092308.870000",
        "092309.870000",
        "092310.870000",
        "092311.870000",
        "092312.870000",
        "092313.870000",
        "092314.870000",
        "092315.870000",
        "092316.870000",
        "092317.870000",
        "092318.870000",
        "092319.870000",
        "092320.870000",
        "092321.870000",
        "092322.870000",
        "092323.870000",
        "092324.870000",
        "092325.870000",
        "092326.870000",
        "092327.870000",
        "092328.870000",
        "092329.870000",
        "092330.870000",
        "092331.870000",
        "092332.870000",
        "092333.870000",
        "092334.870000",
        "092335.870000",
        "092336.870000",
        "092337.870000",
        "092338.870000",
        "092339.870000",
        "092340.870000",
        "092341.870000",
        "092342.870000",
        "092343.870000",
        "092344.870000",
        "092345.870000",
        "092346.870000",
        "092347.870000",
        "092348.870000",
        "092349.870000",
        "092350.870000",
        "092351.870000",
        "092352.870000",
        "092353.870000",
        "092354.870000",
        "092355.870000",
        "092356.870000",
        "092357.870000",
        "092358.870000",
        "092359.870000",
        "092400.870000",
        "092401.870000",
        "092402.870000",
        "092403.870000",
        "092404.870000",
        "092405.870000",
        "092406.870000",
        "092407.870000",
        "092408.870000",
        "092409.870000",
        "092410.870000",
        "092411.870000",
        "092412.870000",
        "092413.870000",
        "092414.870000",
        "092415.870000",
        "092416.870000",
        "092417.870000",
        "092418.870000",
        "092419.870000",
        "092420.870000",
        "092421.870000",
        "092422.870000",
        "092423.870000",
        "092424.870000",
        "092425.870000",
        "092426.870000",
        "092427.870000",
        "092428.870000",
        "092429.870000",
        "092430.870000",
        "092431.870000",
        "092432.870000",
        "092433.870000",
        "092434.870000",
        "092435.870000",
        "092436.870000",
        "092437.870000",
        "092438.870000",
        "092439.870000",
        "092440.870000",
        "092441.870000",
        "092442.870000",
        "092443.870000",
        "092444.870000",
        "092445.870000",
        "092446.870000",
        "092447.870000",
        "092448.870000",
        "092449.870000",
        "092450.870000",
        "092451.870000",
        "092452.870000",
        "092453.870000",
        "092454.870000",
        "092455.870000",
        "092456.870000",
        "092457.870000",
        "092458.870000",
        "092459.870000",
        "092500.870000",
        "092501.870000",
        "092502.870000",
        "092503.870000",
        "092504.870000",
        "092505.870000",
        "092506.870000",
        "092507.870000",
        "092508.870000",
        "092509.870000",
        "092510.870000",
        "092511.870000",
        "092512.870000",
        "092513.870000",
        "092514.870000",
        "092515.870000",
        "092516.870000",
        "092517.870000",
        "092518.870000",
        "092519.870000",
        "092520.870000",
        "092521.870000",
        "092522.870000",
        "092523.870000",
        "092524.870000",
        "092525.870000",
        "092526.870000",
        "092527.870000",
        "092528.870000",
        "092529.870000",
        "092530.870000"
      ],
      "ContentTime": [
        "092045.071000",
        "092045.897000",
        "092046.946000",
        "092047.940000",
        "092048.891000",
        "092049.935000",
        "092050.924000",
        "092051.897000",
        "092052.924000",
        "092053.925000",
        "092054.928000",
        "092055.906000",
        "092056.912000",
        "092057.923000",
        "092058.929000",
        "092100.016000",
        "092100.922000",
        "092101.934000",
        "092102.918000",
        "092103.934000",
        "092104.924000",
        "092105.957000",
        "092106.920000",
        "092107.921000",
        "092108.933000",
        "092109.929000",
        "092110.911000",
        "092111.918000",
        "092112.902000",
        "092113.907000",
        "092114.905000",
        "092115.940000",
        "092116.948000",
        "092117.934000",
        "092118.915000",
        "092119.909000",
        "092120.900000",
        "092121.892000",
        "092122.900000",
        "092123.935000",
        "092124.917000",
        "092125.890000",
        "092126.895000",
        "092127.872000",
        "092128.897000",
        "092129.932000",
        "092130.890000",
        "092131.929000",
        "092132.878000",
        "092133.905000",
        "092134.910000",
        "092135.919000",
        "092136.888000",
        "092137.892000",
        "092138.914000",
        "092139.913000",
        "092140.909000",
        "092141.882000",
        "092142.907000",
        "092143.902000",
        "092144.931000",
        "092145.910000",
        "092146.919000",
        "092147.913000",
        "092148.919000",
        "092149.911000",
        "092150.895000",
        "092151.900000",
        "092152.888000",
        "092153.893000",
        "092154.894000",
        "092155.952000",
        "092156.905000",
        "092157.918000",
        "092158.941000",
        "092159.978000",
        "092200.910000",
        "092201.891000",
        "092202.957000",
        "092203.914000",
        "092204.888000",
        "092205.909000",
        "092206.945000",
        "092207.946000",
        "092208.920000",
        "092209.904000",
        "092210.916000",
        "092211.930000",
        "092212.916000",
        "092213.909000",
        "092214.913000",
        "092215.902000",
        "092216.881000",
        "092217.904000",
        "092218.884000",
        "092219.912000",
        "092220.887000",
        "092221.924000",
        "092222.895000",
        "092223.920000",
        "092224.918000",
        "092225.950000",
        "092226.886000",
        "092227.906000",
        "092228.902000",
        "092229.918000",
        "092230.920000",
        "092231.935000",
        "092232.910000",
        "092233.907000",
        "092234.928000",
        "092235.880000",
        "092236.876000",
        "092237.878000",
        "092238.884000",
        "092239.902000",
        "092240.886000",
        "092241.918000",
        "092242.965000",
        "092243.913000",
        "092244.920000",
        "092245.916000",
        "092246.905000",
        "092247.926000",
        "092248.930000",
        "092249.917000",
        "092250.904000",
        "092251.907000",
        "092252.914000",
        "092253.911000",
        "092254.914000",
        "092255.907000",
        "092256.985000",
        "092257.909000",
        "092258.915000",
        "092259.900000",
        "092300.922000",
        "092301.897000",
        "092302.902000",
        "092303.909000",
        "092304.895000",
        "092305.907000",
        "092306.949000",
        "092307.922000",
        "092308.914000",
        "092309.951000",
        "092310.929000",
        "092311.933000",
        "092312.913000",
        "092313.951000",
        "092314.954000",
        "092315.909000",
        "092316.926000",
        "092317.920000",
        "092318.943000",
        "092319.933000",
        "092320.931000",
        "092321.928000",
        "092322.905000",
        "092323.927000",
        "092324.908000",
        "092325.927000",
        "092326.937000",
        "092327.959000",
        "092328.936000",
        "092329.944000",
        "092330.904000",
        "092331.911000",
        "092332.928000",
        "092333.905000",
        "092334.917000",
        "092335.919000",
        "092336.916000",
        "092337.922000",
        "092338.909000",
        "092339.909000",
        "092340.961000",
        "092341.925000",
        "092342.935000",
        "092343.924000",
        "092344.947000",
        "092345.936000",
        "092346.970000",
        "092347.937000",
        "092348.906000",
        "092349.898000",
        "092350.919000",
        "092351.926000",
        "092352.939000",
        "092353.943000",
        "092354.914000",
        "092355.941000",
        "092356.911000",
        "092357.894000",
        "092358.885000",
        "092359.911000",
        "092400.892000",
        "092401.924000",
        "092402.905000",
        "092403.889000",
        "092404.910000",
        "092405.928000",
        "092406.907000",
        "092407.918000",
        "092408.918000",
        "092409.915000",
        "092410.921000",
        "092411.909000",
        "092412.900000",
        "092413.902000",
        "092414.905000",
        "092415.919000",
        "092416.903000",
        "092417.940000",
        "092418.896000",
        "092419.911000",
        "092420.912000",
        "092421.891000",
        "092422.899000",
        "092423.887000",
        "092424.920000",
        "092425.924000",
        "092426.894000",
        "092427.907000",
        "092428.895000",
        "092429.890000",
        "092430.914000",
        "092431.906000",
        "092432.877000",
        "092433.925000",
        "092434.900000",
        "092435.911000",
        "092436.914000",
        "092437.889000",
        "092438.882000",
        "092439.893000",
        "092440.889000",
        "092441.904000",
        "092442.863000",
        "092443.916000",
        "092444.901000",
        "092445.898000",
        "092446.896000",
        "092447.897000",
        "092448.915000",
        "092449.919000",
        "092450.903000",
        "092451.907000",
        "092452.881000",
        "092453.901000",
        "092454.897000",
        "092455.900000",
        "092456.893000",
        "092457.909000",
        "092458.900000",
        "092459.967000",
        "092500.899000",
        "092501.907000",
        "092502.891000",
        "092503.886000",
        "092504.902000",
        "092505.924000",
        "092506.890000",
        "092507.885000",
        "092508.915000",
        "092509.916000",
        "092510.924000",
        "092511.899000",
        "092512.876000",
        "092513.891000",
        "092514.931000",
        "092515.893000",
        "092516.873000",
        "092517.916000",
        "092518.918000",
        "092519.894000",
        "092520.872000",
        "092521.905000",
        "092522.957000",
        "092523.931000",
        "092524.886000",
        "092525.928000",
        "092526.903000",
        "092527.904000",
        "092528.922000",
        "092529.896000",
        "092530.901000",
        "092531.934000"
      ],
      "InstanceCreationTime": [
        "092045.071000",
        "092045.897000",
        "092046.946000",
        "092047.940000",
        "092048.891000",
        "092049.935000",
        "092050.924000",
        "092051.897000",
        "092052.924000",
        "092053.925000",
        "092054.928000",
        "092055.906000",
        "092056.912000",
        "092057.923000",
        "092058.929000",
        "092100.016000",
        "092100.922000",
        "092101.934000",
        "092102.918000",
        "092103.934000",
        "092104.924000",
        "092105.957000",
        "092106.920000",
        "092107.921000",
        "092108.933000",
        "092109.929000",
        "092110.911000",
        "092111.918000",
        "092112.902000",
        "092113.907000",
        "092114.905000",
        "092115.940000",
        "092116.948000",
        "092117.934000",
        "092118.915000",
        "092119.909000",
        "092120.900000",
        "092121.892000",
        "092122.900000",
        "092123.935000",
        "092124.917000",
        "092125.890000",
        "092126.895000",
        "092127.872000",
        "092128.897000",
        "092129.932000",
        "092130.890000",
        "092131.929000",
        "092132.878000",
        "092133.905000",
        "092134.910000",
        "092135.919000",
        "092136.888000",
        "092137.892000",
        "092138.914000",
        "092139.913000",
        "092140.909000",
        "092141.882000",
        "092142.907000",
        "092143.902000",
        "092144.931000",
        "092145.910000",
        "092146.919000",
        "092147.913000",
        "092148.919000",
        "092149.911000",
        "092150.895000",
        "092151.900000",
        "092152.888000",
        "092153.893000",
        "092154.894000",
        "092155.952000",
        "092156.905000",
        "092157.918000",
        "092158.941000",
        "092159.978000",
        "092200.910000",
        "092201.891000",
        "092202.957000",
        "092203.914000",
        "092204.888000",
        "092205.909000",
        "092206.945000",
        "092207.946000",
        "092208.920000",
        "092209.904000",
        "092210.916000",
        "092211.930000",
        "092212.916000",
        "092213.909000",
        "092214.913000",
        "092215.902000",
        "092216.881000",
        "092217.904000",
        "092218.884000",
        "092219.912000",
        "092220.887000",
        "092221.924000",
        "092222.895000",
        "092223.920000",
        "092224.918000",
        "092225.950000",
        "092226.886000",
        "092227.906000",
        "092228.902000",
        "092229.918000",
        "092230.920000",
        "092231.935000",
        "092232.910000",
        "092233.907000",
        "092234.928000",
        "092235.880000",
        "092236.876000",
        "092237.878000",
        "092238.884000",
        "092239.902000",
        "092240.886000",
        "092241.918000",
        "092242.965000",
        "092243.913000",
        "092244.920000",
        "092245.916000",
        "092246.905000",
        "092247.926000",
        "092248.930000",
        "092249.917000",
        "092250.904000",
        "092251.907000",
        "092252.914000",
        "092253.911000",
        "092254.914000",
        "092255.907000",
        "092256.985000",
        "092257.909000",
        "092258.915000",
        "092259.900000",
        "092300.922000",
        "092301.897000",
        "092302.902000",
        "092303.909000",
        "092304.895000",
        "092305.907000",
        "092306.949000",
        "092307.922000",
        "092308.914000",
        "092309.951000",
        "092310.929000",
        "092311.933000",
        "092312.913000",
        "092313.951000",
        "092314.954000",
        "092315.909000",
        "092316.926000",
        "092317.920000",
        "092318.943000",
        "092319.933000",
        "092320.931000",
        "092321.928000",
        "092322.905000",
        "092323.927000",
        "092324.908000",
        "092325.927000",
        "092326.937000",
        "092327.959000",
        "092328.936000",
        "092329.944000",
        "092330.904000",
        "092331.911000",
        "092332.928000",
        "092333.905000",
        "092334.917000",
        "092335.919000",
        "092336.916000",
        "092337.922000",
        "092338.909000",
        "092339.909000",
        "092340.961000",
        "092341.925000",
        "092342.935000",
        "092343.924000",
        "092344.947000",
        "092345.936000",
        "092346.970000",
        "092347.937000",
        "092348.906000",
        "092349.898000",
        "092350.919000",
        "092351.926000",
        "092352.939000",
        "092353.943000",
        "092354.914000",
        "092355.941000",
        "092356.911000",
        "092357.894000",
        "092358.885000",
        "092359.911000",
        "092400.892000",
        "092401.924000",
        "092402.905000",
        "092403.889000",
        "092404.910000",
        "092405.928000",
        "092406.907000",
        "092407.918000",
        "092408.918000",
        "092409.915000",
        "092410.921000",
        "092411.909000",
        "092412.900000",
        "092413.902000",
        "092414.905000",
        "092415.919000",
        "092416.903000",
        "092417.940000",
        "092418.896000",
        "092419.911000",
        "092420.912000",
        "092421.891000",
        "092422.899000",
        "092423.887000",
        "092424.920000",
        "092425.924000",
        "092426.894000",
        "092427.907000",
        "092428.895000",
        "092429.890000",
        "092430.914000",
        "092431.906000",
        "092432.877000",
        "092433.925000",
        "092434.900000",
        "092435.911000",
        "092436.914000",
        "092437.889000",
        "092438.882000",
        "092439.893000",
        "092440.889000",
        "092441.904000",
        "092442.863000",
        "092443.916000",
        "092444.901000",
        "092445.898000",
        "092446.896000",
        "092447.897000",
        "092448.915000",
        "092449.919000",
        "092450.903000",
        "092451.907000",
        "092452.881000",
        "092453.901000",
        "092454.897000",
        "092455.900000",
        "092456.893000",
        "092457.909000",
        "092458.900000",
        "092459.967000",
