{
  "AcquisitionMatrixPE": 96,
  "AcquisitionNumber": 1,
  "AcquisitionTime": "09:15:58.655000",
  "BandwidthPerPixelPhaseEncode": 18.939,
  "BaseResolution": 96,
  "BodyPartExamined": "BRAIN",
  "ConsistencyInfo": "N4_VE11C_LATEST_20160120",
  "ConversionSoftware": "dcm2niix",
  "ConversionSoftwareVersion": "v1.0.20170923 (OpenJPEG build) GCC6.3.0",
  "DerivedVendorReportedEchoSpacing": 0.000550011,
  "DeviceSerialNumber": "66112",
  "DwellTime": 2.2e-06,
  "EchoTime": 0.033,
  "EchoTrainLength": 96,
  "EffectiveEchoSpacing": 0.000550011,
  "FlipAngle": 59,
  "ImageType": [
    "ORIGINAL",
    "PRIMARY",
    "FMRI",
    "NONE",
    "ND",
    "NORM",
    "MOSAIC"
],
  "InstitutionAddress": "Maynard_3_Hanover_NH_US_03755",
  "InstitutionName": "Dartmouth_College_-_PBS",
  "MagneticFieldStrength": 3,
  "Manufacturer": "Siemens",
  "ManufacturersModelName": "Prisma",
  "Modality": "MR",
  "MultibandAccelerationFactor": 4,
  "PartialFourier": 1,
  "PercentPhaseFOV": 100,
  "PhaseEncodingDirection": "j-",
  "PhaseEncodingSteps": 96,
  "PhaseResolution": 1,
  "ProcedureStepDescription": "Gobbini_Matteo_1038_hyperface",
  "ProtocolName": "func_run-05_task-localizer",
  "PulseSequenceDetails": "%SiemensSeq%_ep2d_bold",
  "ReceiveCoilActiveElements": "HEA;HEP",
  "ReceiveCoilName": "Head_32",
  "ReconMatrixPE": 96,
  "RepetitionTime": 1,
  "ScanOptions": "FS",
  "ScanningSequence": "EP",
  "SequenceName": "_epfid2d1_96",
  "SequenceVariant": "SK",
  "SeriesDescription": "func_run-05_task-localizer",
  "SliceTiming": [0.735, 0, 0.49, 0.0825, 0.5725, 0.165, 0.655, 0.3275, 0.8175, 0.41, 0.9, 0.245, 0.735, 0, 0.49, 0.0825, 0.5725, 0.165, 0.655, 0.3275, 0.8175, 0.41, 0.9, 0.245, 0.735, 0, 0.49, 0.0825, 0.5725, 0.165, 0.655, 0.3275, 0.8175, 0.41, 0.9, 0.245, 0.735, 0, 0.49, 0.0825, 0.5725, 0.165, 0.655, 0.3275, 0.8175, 0.41, 0.9, 0.245],
  "SoftwareVersions": "syngo_MR_E11",
  "StationName": "AWP66112",
  "TotalReadoutTime": 0.0522511,
  "dcmmeta_affine": [
    [-2.499285936355591, -0.05715314298868179, -0.017417434602975845, 126.14576721191406],
    [-0.057159487158060074, 2.4993462562561035, 0.0007119124056771398, -104.74909973144531],
    [-0.017396604642271996, -0.00110993767157197, 2.499939203262329, -47.61795425415039],
    [0.0, 0.0, 0.0, 1.0]
],
  "dcmmeta_reorient_transform": [
    [0.0, -1.0, 0.0, 95.0],
    [1.0, 0.0, 0.0, 0.0],
    [0.0, 0.0, 1.0, 0.0],
    [0.0, 0.0, 0.0, 1.0]
],
  "dcmmeta_shape": [96, 96, 48, 236],
  "dcmmeta_slice_dim": 2,
  "dcmmeta_version": 0.6,
  "global": {
    "const": {
      "AccessionNumber": "A001149",
      "AcquisitionMatrix": [96, 0, 0, 96],
      "AngioFlag": "N",
      "BitsAllocated": 16,
      "BitsStored": 12,
      "BodyPartExamined": "BRAIN",
      "Columns": 672,
      "EchoNumbers": 1,
      "EchoTime": 33.0,
      "EchoTrainLength": 96,
      "FlipAngle": 59.0,
      "HighBit": 11,
      "ImageOrientationPatient": [0.99971437130224, 0.02286379486794, -0.0069586418223, -0.0228612574671, 0.99973854871819, 0.00044397507976],
      "ImagePositionPatient": [-824.05045870013, -868.96249487272, -43.032837406998],
      "ImageType": [
        "ORIGINAL",
        "PRIMARY",
        "FMRI",
        "NONE",
        "ND",
        "NORM",
        "MOSAIC"
],
      "ImagedNucleus": "1H",
      "ImagingFrequency": 123.252296,
      "InPlanePhaseEncodingDirection": "COL",
      "MRAcquisitionType": "2D",
      "MagneticFieldStrength": 3.0,
      "Manufacturer": "SIEMENS",
      "ManufacturerModelName": "Prisma",
      "Modality": "MR",
      "NumberOfAverages": 1.0,
      "NumberOfPhaseEncodingSteps": 96,
      "PercentPhaseFieldOfView": 100.0,
      "PercentSampling": 100.0,
      "PerformedProcedureStepStartTime": "084206.738000",
      "PhotometricInterpretation": "MONOCHROME2",
      "PixelBandwidth": 2365.0,
      "PixelRepresentation": 0,
      "PixelSpacing": [2.5, 2.5],
      "PositionReferenceIndicator": "",
      "ProtocolName": "func_run-05_task-localizer",
      "RepetitionTime": 1000.0,
      "Rows": 672,
      "SAR": 0.05353437966147,
      "SamplesPerPixel": 1,
      "ScanOptions": "FS",
      "ScanningSequence": "EP",
      "SequenceName": "*epfid2d1_96",
      "SequenceVariant": "SK",
      "SeriesDescription": "func_run-05_task-localizer",
      "SeriesNumber": 36,
      "SeriesTime": "091559.555000",
      "SliceLocation": -48.52547884735,
      "SliceThickness": 2.5,
      "SmallestImagePixelValue": 0,
      "SoftwareVersions": "syngo MR E11",
      "SpacingBetweenSlices": 2.5000000650135,
      "SpecificCharacterSet": "ISO_IR 100",
      "StudyID": "1",
      "StudyTime": "084206.617000",
      "TransmitCoilName": "Body",
      "VariableFlipAngleFlag": "N",
      "WindowCenterWidthExplanation": "Algo1",
      "dBdt": 0.0},
    "slices": {}
  },
  "time": {
    "samples": {
      "AcquisitionNumber": [1, 2, 3, 4, 5, 6, 7, 8, 9, 10, 11, 12, 13, 14, 15, 16, 17, 18, 19, 20, 21, 22, 23, 24, 25, 26, 27, 28, 29, 30, 31, 32, 33, 34, 35, 36, 37, 38, 39, 40, 41, 42, 43, 44, 45, 46, 47, 48, 49, 50, 51, 52, 53, 54, 55, 56, 57, 58, 59, 60, 61, 62, 63, 64, 65, 66, 67, 68, 69, 70, 71, 72, 73, 74, 75, 76, 77, 78, 79, 80, 81, 82, 83, 84, 85, 86, 87, 88, 89, 90, 91, 92, 93, 94, 95, 96, 97, 98, 99, 100, 101, 102, 103, 104, 105, 106, 107, 108, 109, 110, 111, 112, 113, 114, 115, 116, 117, 118, 119, 120, 121, 122, 123, 124, 125, 126, 127, 128, 129, 130, 131, 132, 133, 134, 135, 136, 137, 138, 139, 140, 141, 142, 143, 144, 145, 146, 147, 148, 149, 150, 151, 152, 153, 154, 155, 156, 157, 158, 159, 160, 161, 162, 163, 164, 165, 166, 167, 168, 169, 170, 171, 172, 173, 174, 175, 176, 177, 178, 179, 180, 181, 182, 183, 184, 185, 186, 187, 188, 189, 190, 191, 192, 193, 194, 195, 196, 197, 198, 199, 200, 201, 202, 203, 204, 205, 206, 207, 208, 209, 210, 211, 212, 213, 214, 215, 216, 217, 218, 219, 220, 221, 222, 223, 224, 225, 226, 227, 228, 229, 230, 231, 232, 233, 234, 235, 236],
      "AcquisitionTime": ["091558.655000", "091559.655000", "091600.655000", "091601.655000", "091602.655000", "091603.655000", "091604.655000", "091605.655000", "091606.655000", "091607.655000", "091608.655000", "091609.655000", "091610.655000", "091611.655000", "091612.655000", "091613.655000", "091614.655000", "091615.655000", "091616.655000", "091617.655000", "091618.655000", "091619.655000", "091620.655000", "091621.655000", "091622.655000", "091623.655000", "091624.655000", "091625.655000", "091626.655000", "091627.655000", "091628.655000", "091629.655000", "091630.655000", "091631.655000", "091632.655000", "091633.655000", "091634.655000", "091635.655000", "091636.655000", "091637.655000", "091638.655000", "091639.655000", "091640.655000", "091641.655000", "091642.655000", "091643.655000", "091644.655000", "091645.655000", "091646.655000", "091647.655000", "091648.655000", "091649.655000", "091650.655000", "091651.655000", "091652.655000", "091653.655000", "091654.655000", "091655.655000", "091656.655000", "091657.655000", "091658.655000", "091659.655000", "091700.655000", "091701.655000", "091702.655000", "091703.655000", "091704.655000", "091705.655000", "091706.655000", "091707.655000", "091708.655000", "091709.655000", "091710.655000", "091711.655000", "091712.655000", "091713.655000", "091714.655000", "091715.655000", "091716.655000", "091717.655000", "091718.655000", "091719.655000", "091720.655000", "091721.655000", "091722.655000", "091723.655000", "091724.655000", "091725.655000", "091726.655000", "091727.655000", "091728.655000", "091729.655000", "091730.655000", "091731.655000", "091732.655000", "091733.655000", "091734.655000", "091735.655000", "091736.655000", "091737.655000", "091738.655000", "091739.655000", "091740.655000", "091741.655000", "091742.655000", "091743.655000", "091744.655000", "091745.655000", "091746.655000", "091747.655000", "091748.655000", "091749.655000", "091750.655000", "091751.655000", "091752.655000", "091753.655000", "091754.655000", "091755.655000", "091756.655000", "091757.655000", "091758.655000", "091759.655000", "091800.655000", "091801.655000", "091802.655000", "091803.655000", "091804.655000", "091805.655000", "091806.655000", "091807.655000", "091808.655000", "091809.655000", "091810.655000", "091811.655000", "091812.655000", "091813.655000", "091814.655000", "091815.655000", "091816.655000", "091817.655000", "091818.655000", "091819.655000", "091820.655000", "091821.655000", "091822.655000", "091823.655000", "091824.655000", "091825.655000", "091826.655000", "091827.655000", "091828.655000", "091829.655000", "091830.655000", "091831.655000", "091832.655000", "091833.655000", "091834.655000", "091835.655000", "091836.655000", "091837.655000", "091838.655000", "091839.655000", "091840.655000", "091841.655000", "091842.655000", "091843.655000", "091844.655000", "091845.655000", "091846.655000", "091847.655000", "091848.655000", "091849.655000", "091850.655000", "091851.655000", "091852.655000", "091853.655000", "091854.655000", "091855.655000", "091856.655000", "091857.655000", "091858.655000", "091859.655000", "091900.655000", "091901.655000", "091902.655000", "091903.655000", "091904.655000", "091905.655000", "091906.655000", "091907.655000", "091908.655000", "091909.655000", "091910.655000", "091911.655000", "091912.655000", "091913.655000", "091914.655000", "091915.655000", "091916.655000", "091917.655000", "091918.655000", "091919.655000", "091920.655000", "091921.655000", "091922.655000", "091923.655000", "091924.655000", "091925.655000", "091926.655000", "091927.655000", "091928.655000", "091929.655000", "091930.655000", "091931.655000", "091932.655000", "091933.655000", "091934.655000", "091935.655000", "091936.655000", "091937.655000", "091938.655000", "091939.655000", "091940.655000", "091941.655000", "091942.655000", "091943.655000", "091944.655000", "091945.655000", "091946.655000", "091947.655000", "091948.655000", "091949.655000", "091950.655000", "091951.655000", "091952.655000", "091953.655000"],
      "ContentTime": ["091559.559000", "091600.429000", "091601.407000", "091602.433000", "091603.416000", "091604.421000", "091605.397000", "091606.430000", "091607.416000", "091608.401000", "091609.413000", "091610.392000", "091611.440000", "091612.401000", "091613.402000", "091614.453000", "091615.402000", "091616.392000", "091617.405000", "091618.387000", "091619.392000", "091620.391000", "091621.398000", "091622.384000", "091623.418000", "091624.421000", "091625.392000", "091626.402000", "091627.399000", "091628.365000", "091629.431000", "091630.411000", "091631.409000", "091632.398000", "091633.413000", "091634.396000", "091635.401000", "091636.416000", "091637.413000", "091638.395000", "091639.430000", "091640.420000", "091641.403000", "091642.385000", "091643.404000", "091644.401000", "091645.404000", "091646.432000", "091647.446000", "091648.413000", "091649.394000", "091650.452000", "091651.393000", "091652.425000", "091653.416000", "091654.404000", "091655.397000", "091656.391000", "091657.429000", "091658.420000", "091659.417000", "091700.417000", "091701.400000", "091702.446000", "091703.416000", "091704.453000", "091705.430000", "091706.411000", "091707.398000", "091708.378000", "091709.408000", "091710.399000", "091711.416000", "091712.401000", "091713.404000", "091714.410000", "091715.434000", "091716.398000", "091717.408000", "091718.412000", "091719.371000", "091720.390000", "091721.405000", "091722.404000", "091723.393000", "091724.420000", "091725.393000", "091726.414000", "091727.401000", "091728.441000", "091729.478000", "091730.413000", "091731.398000", "091732.385000", "091733.386000", "091734.385000", "091735.409000", "091736.407000", "091737.399000", "091738.384000", "091739.413000", "091740.415000", "091741.396000", "091742.441000", "091743.394000", "091744.412000", "091745.400000", "091746.457000", "091747.421000", "091748.403000", "091749.417000", "091750.397000", "091751.400000", "091752.422000", "091753.431000", "091754.424000", "091755.405000", "091756.394000", "091757.439000", "091758.427000", "091759.465000", "091800.390000", "091801.428000", "091802.451000", "091803.411000", "091804.409000", "091805.455000", "091806.402000", "091807.415000", "091808.420000", "091809.436000", "091810.415000", "091811.409000", "091812.406000", "091813.408000", "091814.385000", "091815.398000", "091816.456000", "091817.452000", "091818.384000", "091819.394000", "091820.375000", "091821.401000", "091822.398000", "091823.453000", "091824.409000", "091825.397000", "091826.418000", "091827.388000", "091828.403000", "091829.397000", "091830.404000", "091831.387000", "091832.415000", "091833.388000", "091834.454000", "091835.394000", "091836.404000", "091837.421000", "091838.413000", "091839.416000", "091840.404000", "091841.399000", "091842.422000", "091843.400000", "091844.398000", "091845.390000", "091846.402000", "091847.437000", "091848.412000", "091849.392000", "091850.379000", "091851.426000", "091852.426000", "091853.460000", "091854.415000", "091855.430000", "091856.454000", "091857.398000", "091858.434000", "091859.449000", "091900.455000", "091901.452000", "091902.401000", "091903.431000", "091904.426000", "091905.430000", "091906.449000", "091907.445000", "091908.428000", "091909.421000", "091910.432000", "091911.410000", "091912.400000", "091913.444000", "091914.417000", "091915.402000", "091916.411000", "091917.402000", "091918.428000", "091919.396000", "091920.409000", "091921.377000", "091922.400000", "091923.390000", "091924.394000", "091925.410000", "091926.466000", "091927.391000", "091928.399000", "091929.395000", "091930.410000", "091931.396000", "091932.399000", "091933.417000", "091934.424000", "091935.388000", "091936.401000", "091937.406000", "091938.414000", "091939.396000", "091940.403000", "091941.417000", "091942.408000", "091943.393000", "091944.394000", "091945.422000", "091946.408000", "091947.395000", "091948.379000", "091949.387000", "091950.373000", "091951.404000", "091952.391000", "091953.408000", "091954.432000"],
      "InstanceCreationTime": ["091559.559000", "091600.429000", "091601.407000", "091602.433000", "091603.416000", "091604.421000", "091605.397000", "091606.430000", "091607.416000", "091608.401000", "091609.413000", "091610.392000", "091611.440000", "091612.401000", "091613.402000", "091614.453000", "091615.402000", "091616.392000", "091617.405000", "091618.387000", "091619.392000", "091620.391000", "091621.398000", "091622.384000", "091623.418000", "091624.421000", "091625.392000", "091626.402000", "091627.399000", "091628.365000", "091629.431000", "091630.411000", "091631.409000", "091632.398000", "091633.413000", "091634.396000", "091635.401000", "091636.416000", "091637.413000", "091638.395000", "091639.430000", "091640.420000", "091641.403000", "091642.385000", "091643.404000", "091644.401000", "091645.404000", "091646.432000", "091647.446000", "091648.413000", "091649.394000", "091650.452000", "091651.393000", "091652.425000", "091653.416000", "091654.404000", "091655.397000", "091656.391000", "091657.429000", "091658.420000", "091659.417000", "091700.417000", "091701.400000", "091702.446000", "091703.416000", "091704.453000", "091705.430000", "091706.411000", "091707.398000", "091708.378000", "091709.408000", "091710.399000", "091711.416000", "091712.401000", "091713.404000", "091714.410000", "091715.434000", "091716.398000", "091717.408000", "091718.412000", "091719.371000", "091720.390000", "091721.405000", "091722.404000", "091723.393000", "091724.420000", "091725.393000", "091726.414000", "091727.401000", "091728.441000", "091729.478000", "091730.413000", "091731.398000", "091732.385000", "091733.386000", "091734.385000", "091735.409000", "091736.407000", "091737.399000", "091738.384000", "091739.413000", "091740.415000", "091741.396000", "091742.441000", "091743.394000", "091744.412000", "091745.400000", "091746.457000", "091747.421000", "091748.403000", "091749.417000", "091750.397000", "091751.400000", "091752.422000", "091753.431000", "091754.424000", "091755.405000", "091756.394000", "091757.439000", "091758.427000", "091759.465000", "091800.390000", "091801.428000", "091802.451000", "091803.411000", "091804.409000", "091805.455000", "091806.402000", "091807.415000", "091808.420000", "091809.436000", "091810.415000", "091811.409000", "091812.406000", "091813.408000", "091814.385000", "091815.398000", "091816.456000", "091817.452000", "091818.384000", "091819.394000", "091820.375000", "091821.401000", "091822.398000", "091823.453000", "091824.409000", "091825.397000", "091826.418000", "091827.388000", "091828.403000", "091829.397000", "091830.404000", "091831.387000", "091832.415000", "091833.388000", "091834.454000", "091835.394000", "091836.404000", "091837.421000", "091838.413000", "091839.416000", "091840.404000", "091841.399000", "091842.422000", "091843.400000", "091844.398000", "091845.390000", "091846.402000", "091847.437000", "091848.412000", "091849.392000", "091850.379000", "091851.426000", "091852.426000", "091853.460000", "091854.415000", "091855.430000", "091856.454000", "091857.398000", "091858.434000", "091859.449000", "091900.455000", "091901.452000", "091902.401000", "091903.431000", "091904.426000", "091905.430000", "091906.449000", "091907.445000", "091908.428000", "091909.421000", "091910.432000", "091911.410000", "091912.400000", "091913.444000", "091914.417000", "091915.402000", "091916.411000", "091917.402000", "091918.428000", "091919.396000", "091920.409000", "091921.377000", "091922.400000", "091923.390000", "091924.394000", "091925.410000", "091926.466000", "091927.391000", "091928.399000", "091929.395000", "091930.410000", "091931.396000", "091932.399000", "091933.417000", "091934.424000", "091935.388000", "091936.401000", "091937.406000", "091938.414000", "091939.396000", "091940.403000", "091941.417000", "091942.408000", "091943.393000", "091944.394000", "091945.422000", "091946.408000", "091947.395000", "091948.379000", "091949.387000", "091950.373000", "091951.404000", "091952.391000", "091953.408000", "091954.432000"],
      "InstanceNumber": [1, 2, 3, 4, 5, 6, 7, 8, 9, 10, 11, 12, 13, 14, 15, 16, 17, 18, 19, 20, 21, 22, 23, 24, 25, 26, 27, 28, 29, 30, 31, 32, 33, 34, 35, 36, 37, 38, 39, 40, 41, 42, 43, 44, 45, 46, 47, 48, 49, 50, 51, 52, 53, 54, 55, 56, 57, 58, 59, 60, 61, 62, 63, 64, 65, 66, 67, 68, 69, 70, 71, 72, 73, 74, 75, 76, 77, 78, 79, 80, 81, 82, 83, 84, 85, 86, 87, 88, 89, 90, 91, 92, 93, 94, 95, 96, 97, 98, 99, 100, 101, 102, 103, 104, 105, 106, 107, 108, 109, 110, 111, 112, 113, 114, 115, 116, 117, 118, 119, 120, 121, 122, 123, 124, 125, 126, 127, 128, 129, 130, 131, 132, 133, 134, 135, 136, 137, 138, 139, 140, 141, 142, 143, 144, 145, 146, 147, 148, 149, 150, 151, 152, 153, 154, 155, 156, 157, 158, 159, 160, 161, 162, 163, 164, 165, 166, 167, 168, 169, 170, 171, 172, 173, 174, 175, 176, 177, 178, 179, 180, 181, 182, 183, 184, 185, 186, 187, 188, 189, 190, 191, 192, 193, 194, 195, 196, 197, 198, 199, 200, 201, 202, 203, 204, 205, 206, 207, 208, 209, 210, 211, 212, 213, 214, 215, 216, 217, 218, 219, 220, 221, 222, 223, 224, 225, 226, 227, 228, 229, 230, 231, 232, 233, 234, 235, 236],
      "LargestImagePixelValue": [1005, 1507, 1385, 892, 1385, 1511, 1225, 839, 1530, 1503, 935, 783, 1249, 1145, 1546, 1059, 1483, 1407, 1364, 854, 1015, 1291, 1546, 1073, 889, 1009, 1607, 1061, 815, 1013, 1391, 1300, 846, 1060, 1076, 1640, 1103, 975, 1355, 1549, 998, 839, 844, 1388, 1548, 933, 769, 1150, 1503, 1337, 925, 1404, 1279, 1681, 1214, 936, 1086, 1157, 1099, 1035, 1067, 1364, 1257, 1653, 1153, 1087, 1364, 1615, 1071, 791, 822, 844, 1154, 1511, 1086, 997, 1058, 1373, 1402, 1233, 1167, 1069, 1302, 806, 1175, 1542, 1149, 969, 1429, 1262, 1655, 1058, 893, 916, 1463, 1575, 1025, 827, 787, 809, 972, 1237, 1371, 1527, 1218, 1522, 1437, 924, 993, 847, 1358, 1368, 1023, 918, 992, 828, 1245, 1644, 1349, 929, 1143, 840, 1116, 1598, 1034, 808, 1262, 1717, 1109, 839, 846, 809, 1678, 1116, 994, 942, 1371, 1674, 1043, 1198, 1306, 899, 1453, 1366, 985, 812, 873, 922, 1144, 1424, 1349, 1567, 1259, 989, 924, 1002, 802, 1290, 1442, 1644, 997, 1117, 1005, 1046, 1467, 989, 802, 1155, 1271, 1574, 1199, 1276, 1193, 1769, 1167, 849, 1032, 1425, 1322, 935, 852, 1431, 1371, 1302, 969, 1292, 1119, 1592, 1117, 876, 783, 1272, 1606, 1380, 1111, 1411, 1394, 1549, 942, 794, 929, 1602, 1050, 857, 1114, 1540, 1345, 949, 916, 1600, 1147, 869, 1333, 1602, 1152, 776, 1429, 1384, 918, 1038, 1385, 1506, 999, 1144, 1402, 1578, 1080, 837, 1146, 1414, 1562, 1029, 885, 1462, 874, 1265],
      "WindowCenter": [396.0, 399.0, 397.0, 394.0, 397.0, 397.0, 396.0, 393.0, 397.0, 397.0, 394.0, 392.0, 396.0, 395.0, 398.0, 395.0, 396.0, 396.0, 396.0, 393.0, 394.0, 396.0, 398.0, 395.0, 393.0, 394.0, 398.0, 394.0, 392.0, 394.0, 396.0, 396.0, 393.0, 395.0, 396.0, 399.0, 396.0, 394.0, 396.0, 397.0, 395.0, 393.0, 394.0, 397.0, 398.0, 394.0, 393.0, 396.0, 398.0, 397.0, 395.0, 397.0, 397.0, 399.0, 396.0, 393.0, 394.0, 395.0, 396.0, 397.0, 396.0, 398.0, 397.0, 399.0, 396.0, 395.0, 396.0, 397.0, 394.0, 391.0, 392.0, 392.0, 395.0, 397.0, 395.0, 395.0, 395.0, 396.0, 396.0, 395.0, 395.0, 395.0, 396.0, 393.0, 396.0, 397.0, 396.0, 395.0, 397.0, 397.0, 398.0, 395.0, 393.0, 393.0, 397.0, 397.0, 394.0, 392.0, 392.0, 394.0, 396.0, 398.0, 399.0, 399.0, 396.0, 397.0, 396.0, 393.0, 393.0, 393.0, 396.0, 396.0, 395.0, 394.0, 395.0, 394.0, 396.0, 398.0, 396.0, 393.0, 394.0, 393.0, 395.0, 398.0, 396.0, 393.0, 396.0, 399.0, 395.0, 393.0, 393.0, 395.0, 401.0, 397.0, 397.0, 396.0, 398.0, 399.0, 395.0, 396.0, 396.0, 393.0, 397.0, 396.0, 394.0, 392.0, 393.0, 394.0, 397.0, 397.0, 396.0, 397.0, 395.0, 394.0, 393.0, 394.0, 393.0, 397.0, 398.0, 398.0, 394.0, 394.0, 394.0, 394.0, 397.0, 395.0, 394.0, 397.0, 397.0, 399.0, 397.0, 397.0, 397.0, 399.0, 395.0, 392.0, 394.0, 397.0, 396.0, 394.0, 393.0, 398.0, 397.0, 397.0, 394.0, 396.0, 396.0, 398.0, 396.0, 394.0, 393.0, 397.0, 398.0, 397.0, 395.0, 396.0, 396.0, 396.0, 392.0, 392.0, 394.0, 397.0, 395.0, 394.0, 395.0, 398.0, 397.0, 394.0, 394.0, 398.0, 396.0, 394.0, 397.0, 398.0, 396.0, 392.0, 397.0, 397.0, 394.0, 396.0, 398.0, 398.0, 395.0, 396.0, 398.0, 398.0, 396.0, 394.0, 396.0, 397.0, 398.0, 395.0, 393.0, 398.0, 394.0, 397.0],
      "WindowWidth": [841.0, 843.0, 840.0, 836.0, 840.0, 841.0, 839.0, 834.0, 839.0, 840.0, 835.0, 832.0, 838.0, 837.0, 841.0, 837.0, 838.0, 838.0, 838.0, 834.0, 835.0, 838.0, 841.0, 837.0, 834.0, 835.0, 841.0, 835.0, 833.0, 835.0, 839.0, 839.0, 834.0, 838.0, 839.0, 843.0, 839.0, 836.0, 839.0, 840.0, 837.0, 835.0, 836.0, 841.0, 842.0, 836.0, 835.0, 840.0, 842.0, 840.0, 838.0, 841.0, 840.0, 844.0, 838.0, 835.0, 836.0, 837.0, 839.0, 841.0, 840.0, 841.0, 840.0, 844.0, 839.0, 837.0, 839.0, 841.0, 835.0, 831.0, 833.0, 833.0, 837.0, 841.0, 838.0, 837.0, 837.0, 838.0, 839.0, 837.0, 837.0, 837.0, 839.0, 834.0, 838.0, 841.0, 838.0, 837.0, 841.0, 839.0, 842.0, 836.0, 835.0, 834.0, 840.0, 841.0, 836.0, 833.0, 834.0, 836.0, 839.0, 843.0, 844.0, 844.0, 839.0, 841.0, 839.0, 834.0, 834.0, 834.0, 839.0, 839.0, 837.0, 836.0, 837.0, 836.0, 840.0, 841.0, 838.0, 834.0, 836.0, 834.0, 838.0, 842.0, 838.0, 835.0, 839.0, 843.0, 838.0, 834.0, 835.0, 837.0, 847.0, 842.0, 840.0, 839.0, 842.0, 843.0, 837.0, 838.0, 838.0, 834.0, 839.0, 838.0, 836.0, 833.0, 835.0, 837.0, 840.0, 840.0, 839.0, 840.0, 837.0, 835.0, 835.0, 835.0, 835.0, 840.0, 841.0, 842.0, 836.0, 836.0, 835.0, 836.0, 841.0, 837.0, 836.0, 840.0, 841.0, 844.0, 841.0, 841.0, 840.0, 843.0, 837.0, 833.0, 835.0, 840.0, 839.0, 836.0, 835.0, 841.0, 840.0, 840.0, 836.0, 839.0, 838.0, 842.0, 839.0, 836.0, 835.0, 841.0, 842.0, 840.0, 837.0, 838.0, 838.0, 839.0, 833.0, 832.0, 835.0, 841.0, 838.0, 835.0, 838.0, 842.0, 840.0, 836.0, 835.0, 842.0, 839.0, 836.0, 840.0, 842.0, 838.0, 833.0, 840.0, 840.0, 837.0, 838.0, 842.0, 842.0, 837.0, 839.0, 841.0, 842.0, 839.0, 836.0, 839.0, 840.0, 842.0, 837.0, 835.0, 841.0, 835.0, 841.0]
    },
    "slices": {}
  }
}