{
  "AcquisitionMatrixPE": 96,
  "AcquisitionNumber": 1,
  "AcquisitionTime": "08:59:17.075000",
  "BandwidthPerPixelPhaseEncode": 18.939,
  "BaseResolution": 96,
  "BodyPartExamined": "BRAIN",
  "ConsistencyInfo": "N4_VE11C_LATEST_20160120",
  "ConversionSoftware": "dcm2niix",
  "ConversionSoftwareVersion": "v1.0.20170923 (OpenJPEG build) GCC6.3.0",
  "DerivedVendorReportedEchoSpacing": 0.000550011,
  "DeviceSerialNumber": "66112",
  "DwellTime": 2.2e-06,
  "EchoTime": 0.033,
  "EchoTrainLength": 96,
  "EffectiveEchoSpacing": 0.000550011,
  "FlipAngle": 59,
  "ImageType": [
    "ORIGINAL",
    "PRIMARY",
    "FMRI",
    "NONE",
    "ND",
    "NORM",
    "MOSAIC"
],
  "InstitutionAddress": "Maynard_3_Hanover_NH_US_03755",
  "InstitutionName": "Dartmouth_College_-_PBS",
  "MagneticFieldStrength": 3,
  "Manufacturer": "Siemens",
  "ManufacturersModelName": "Prisma",
  "Modality": "MR",
  "MultibandAccelerationFactor": 4,
  "PartialFourier": 1,
  "PercentPhaseFOV": 100,
  "PhaseEncodingDirection": "j-",
  "PhaseEncodingSteps": 96,
  "PhaseResolution": 1,
  "ProcedureStepDescription": "Gobbini_Matteo_1038_hyperface",
  "ProtocolName": "func_run-02_task-visualmemory",
  "PulseSequenceDetails": "%SiemensSeq%_ep2d_bold",
  "ReceiveCoilActiveElements": "HEA;HEP",
  "ReceiveCoilName": "Head_32",
  "ReconMatrixPE": 96,
  "RepetitionTime": 1,
  "ScanOptions": "FS",
  "ScanningSequence": "EP",
  "SequenceName": "_epfid2d1_96",
  "SequenceVariant": "SK",
  "SeriesDescription": "func_run-02_task-visualmemory",
  "SliceTiming": [0.735, 0, 0.49, 0.0825, 0.5725, 0.1625, 0.6525, 0.3275, 0.8175, 0.4075, 0.8975, 0.245, 0.735, 0, 0.49, 0.0825, 0.5725, 0.1625, 0.6525, 0.3275, 0.8175, 0.4075, 0.8975, 0.245, 0.735, 0, 0.49, 0.0825, 0.5725, 0.1625, 0.6525, 0.3275, 0.8175, 0.4075, 0.8975, 0.245, 0.735, 0, 0.49, 0.0825, 0.5725, 0.1625, 0.6525, 0.3275, 0.8175, 0.4075, 0.8975, 0.245],
  "SoftwareVersions": "syngo_MR_E11",
  "StationName": "AWP66112",
  "TotalReadoutTime": 0.0522511,
  "dcmmeta_affine": [
    [-2.499285936355591, -0.05715314298868179, -0.017417434602975845, 126.14576721191406],
    [-0.057159487158060074, 2.4993462562561035, 0.0007119124056771398, -104.74909973144531],
    [-0.017396604642271996, -0.00110993767157197, 2.499939203262329, -47.61795425415039],
    [0.0, 0.0, 0.0, 1.0]
],
  "dcmmeta_reorient_transform": [
    [0.0, -1.0, 0.0, 95.0],
    [1.0, 0.0, 0.0, 0.0],
    [0.0, 0.0, 1.0, 0.0],
    [0.0, 0.0, 0.0, 1.0]
],
  "dcmmeta_shape": [96, 96, 48, 288],
  "dcmmeta_slice_dim": 2,
  "dcmmeta_version": 0.6,
  "global": {
    "const": {
      "AccessionNumber": "A001149",
      "AcquisitionMatrix": [96, 0, 0, 96],
      "AngioFlag": "N",
      "BitsAllocated": 16,
      "BitsStored": 12,
      "BodyPartExamined": "BRAIN",
      "Columns": 672,
      "EchoNumbers": 1,
      "EchoTime": 33.0,
      "EchoTrainLength": 96,
      "FlipAngle": 59.0,
      "HighBit": 11,
      "ImageOrientationPatient": [0.99971437130224, 0.02286379486794, -0.0069586418223, -0.0228612574671, 0.99973854871819, 0.00044397507976],
      "ImagePositionPatient": [-824.05045870013, -868.96249487272, -43.032837406998],
      "ImageType": [
        "ORIGINAL",
        "PRIMARY",
        "FMRI",
        "NONE",
        "ND",
        "NORM",
        "MOSAIC"
],
      "ImagedNucleus": "1H",
      "ImagingFrequency": 123.252296,
      "InPlanePhaseEncodingDirection": "COL",
      "MRAcquisitionType": "2D",
      "MagneticFieldStrength": 3.0,
      "Manufacturer": "SIEMENS",
      "ManufacturerModelName": "Prisma",
      "Modality": "MR",
      "NumberOfAverages": 1.0,
      "NumberOfPhaseEncodingSteps": 96,
      "PercentPhaseFieldOfView": 100.0,
      "PercentSampling": 100.0,
      "PerformedProcedureStepStartTime": "084206.738000",
      "PhotometricInterpretation": "MONOCHROME2",
      "PixelBandwidth": 2365.0,
      "PixelRepresentation": 0,
      "PixelSpacing": [2.5, 2.5],
      "PositionReferenceIndicator": "",
      "ProtocolName": "func_run-02_task-visualmemory",
      "RepetitionTime": 1000.0,
      "Rows": 672,
      "SAR": 0.05366269282021,
      "SamplesPerPixel": 1,
      "ScanOptions": "FS",
      "ScanningSequence": "EP",
      "SequenceName": "*epfid2d1_96",
      "SequenceVariant": "SK",
      "SeriesDescription": "func_run-02_task-visualmemory",
      "SeriesNumber": 15,
      "SeriesTime": "085918.818000",
      "SliceLocation": -48.52547884735,
      "SliceThickness": 2.5,
      "SmallestImagePixelValue": 0,
      "SoftwareVersions": "syngo MR E11",
      "SpacingBetweenSlices": 2.5000000650135,
      "SpecificCharacterSet": "ISO_IR 100",
      "StudyID": "1",
      "StudyTime": "084206.617000",
      "TransmitCoilName": "Body",
      "VariableFlipAngleFlag": "N",
      "WindowCenterWidthExplanation": "Algo1",
      "dBdt": 0.0},
    "slices": {}
  },
  "time": {
    "samples": {
      "AcquisitionNumber": [1, 2, 3, 4, 5, 6, 7, 8, 9, 10, 11, 12, 13, 14, 15, 16, 17, 18, 19, 20, 21, 22, 23, 24, 25, 26, 27, 28, 29, 30, 31, 32, 33, 34, 35, 36, 37, 38, 39, 40, 41, 42, 43, 44, 45, 46, 47, 48, 49, 50, 51, 52, 53, 54, 55, 56, 57, 58, 59, 60, 61, 62, 63, 64, 65, 66, 67, 68, 69, 70, 71, 72, 73, 74, 75, 76, 77, 78, 79, 80, 81, 82, 83, 84, 85, 86, 87, 88, 89, 90, 91, 92, 93, 94, 95, 96, 97, 98, 99, 100, 101, 102, 103, 104, 105, 106, 107, 108, 109, 110, 111, 112, 113, 114, 115, 116, 117, 118, 119, 120, 121, 122, 123, 124, 125, 126, 127, 128, 129, 130, 131, 132, 133, 134, 135, 136, 137, 138, 139, 140, 141, 142, 143, 144, 145, 146, 147, 148, 149, 150, 151, 152, 153, 154, 155, 156, 157, 158, 159, 160, 161, 162, 163, 164, 165, 166, 167, 168, 169, 170, 171, 172, 173, 174, 175, 176, 177, 178, 179, 180, 181, 182, 183, 184, 185, 186, 187, 188, 189, 190, 191, 192, 193, 194, 195, 196, 197, 198, 199, 200, 201, 202, 203, 204, 205, 206, 207, 208, 209, 210, 211, 212, 213, 214, 215, 216, 217, 218, 219, 220, 221, 222, 223, 224, 225, 226, 227, 228, 229, 230, 231, 232, 233, 234, 235, 236, 237, 238, 239, 240, 241, 242, 243, 244, 245, 246, 247, 248, 249, 250, 251, 252, 253, 254, 255, 256, 257, 258, 259, 260, 261, 262, 263, 264, 265, 266, 267, 268, 269, 270, 271, 272, 273, 274, 275, 276, 277, 278, 279, 280, 281, 282, 283, 284, 285, 286, 287, 288],
      "AcquisitionTime": ["085917.075000", "085918.075000", "085919.075000", "085920.075000", "085921.075000", "085922.075000", "085923.075000", "085924.075000", "085925.075000", "085926.075000", "085927.075000", "085928.075000", "085929.075000", "085930.075000", "085931.075000", "085932.075000", "085933.075000", "085934.075000", "085935.075000", "085936.075000", "085937.075000", "085938.075000", "085939.075000", "085940.075000", "085941.075000", "085942.075000", "085943.075000", "085944.075000", "085945.075000", "085946.075000", "085947.075000", "085948.075000", "085949.075000", "085950.075000", "085951.075000", "085952.075000", "085953.075000", "085954.075000", "085955.075000", "085956.075000", "085957.075000", "085958.075000", "085959.075000", "090000.075000", "090001.075000", "090002.075000", "090003.075000", "090004.075000", "090005.075000", "090006.075000", "090007.075000", "090008.075000", "090009.075000", "090010.075000", "090011.075000", "090012.075000", "090013.075000", "090014.075000", "090015.075000", "090016.075000", "090017.075000", "090018.075000", "090019.075000", "090020.075000", "090021.075000", "090022.075000", "090023.075000", "090024.075000", "090025.075000", "090026.075000", "090027.075000", "090028.075000", "090029.075000", "090030.075000", "090031.075000", "090032.075000", "090033.075000", "090034.075000", "090035.075000", "090036.075000", "090037.075000", "090038.075000", "090039.075000", "090040.075000", "090041.075000", "090042.075000", "090043.075000", "090044.075000", "090045.075000", "090046.075000", "090047.075000", "090048.075000", "090049.075000", "090050.075000", "090051.075000", "090052.075000", "090053.075000", "090054.075000", "090055.075000", "090056.075000", "090057.075000", "090058.075000", "090059.075000", "090100.075000", "090101.075000", "090102.075000", "090103.075000", "090104.075000", "090105.075000", "090106.075000", "090107.075000", "090108.075000", "090109.075000", "090110.075000", "090111.075000", "090112.075000", "090113.075000", "090114.075000", "090115.075000", "090116.075000", "090117.075000", "090118.075000", "090119.075000", "090120.075000", "090121.075000", "090122.075000", "090123.075000", "090124.075000", "090125.075000", "090126.075000", "090127.075000", "090128.075000", "090129.075000", "090130.075000", "090131.075000", "090132.075000", "090133.075000", "090134.075000", "090135.075000", "090136.075000", "090137.075000", "090138.075000", "090139.075000", "090140.075000", "090141.075000", "090142.075000", "090143.075000", "090144.075000", "090145.075000", "090146.075000", "090147.075000", "090148.075000", "090149.075000", "090150.075000", "090151.075000", "090152.075000", "090153.075000", "090154.075000", "090155.075000", "090156.075000", "090157.075000", "090158.075000", "090159.075000", "090200.075000", "090201.075000", "090202.075000", "090203.075000", "090204.075000", "090205.075000", "090206.075000", "090207.075000", "090208.075000", "090209.075000", "090210.075000", "090211.075000", "090212.075000", "090213.075000", "090214.075000", "090215.075000", "090216.075000", "090217.075000", "090218.075000", "090219.075000", "090220.075000", "090221.075000", "090222.075000", "090223.075000", "090224.075000", "090225.075000", "090226.075000", "090227.075000", "090228.075000", "090229.075000", "090230.075000", "090231.075000", "090232.075000", "090233.075000", "090234.075000", "090235.075000", "090236.075000", "090237.075000", "090238.075000", "090239.075000", "090240.075000", "090241.075000", "090242.075000", "090243.075000", "090244.075000", "090245.075000", "090246.075000", "090247.075000", "090248.075000", "090249.075000", "090250.075000", "090251.075000", "090252.075000", "090253.075000", "090254.075000", "090255.075000", "090256.075000", "090257.075000", "090258.075000", "090259.075000", "090300.075000", "090301.075000", "090302.075000", "090303.075000", "090304.075000", "090305.075000", "090306.075000", "090307.075000", "090308.075000", "090309.075000", "090310.075000", "090311.075000", "090312.075000", "090313.075000", "090314.075000", "090315.075000", "090316.075000", "090317.075000", "090318.075000", "090319.075000", "090320.075000", "090321.075000", "090322.075000", "090323.075000", "090324.075000", "090325.075000", "090326.075000", "090327.075000", "090328.075000", "090329.075000", "090330.075000", "090331.075000", "090332.075000", "090333.075000", "090334.075000", "090335.075000", "090336.075000", "090337.075000", "090338.075000", "090339.075000", "090340.075000", "090341.075000", "090342.075000", "090343.075000", "090344.075000", "090345.075000", "090346.075000", "090347.075000", "090348.075000", "090349.075000", "090350.075000", "090351.075000", "090352.075000", "090353.075000", "090354.075000", "090355.075000", "090356.075000", "090357.075000", "090358.075000", "090359.075000", "090400.075000", "090401.075000", "090402.075000", "090403.075000", "090404.075000"],
      "ContentTime": ["085918.821000", "085919.657000", "085920.631000", "085921.654000", "085922.599000", "085923.645000", "085924.640000", "085925.665000", "085926.620000", "085927.694000", "085928.647000", "085929.628000", "085930.624000", "085931.643000", "085932.645000", "085933.605000", "085934.636000", "085935.613000", "085936.604000", "085937.607000", "085938.603000", "085939.622000", "085940.612000", "085941.660000", "085942.630000", "085943.627000", "085944.604000", "085945.611000", "085946.600000", "085947.650000", "085948.621000", "085949.637000", "085950.635000", "085951.612000", "085952.604000", "085953.640000", "085954.632000", "085955.655000", "085956.640000", "085957.646000", "085958.629000", "085959.617000", "090000.632000", "090001.640000", "090002.634000", "090003.654000", "090004.647000", "090005.654000", "090006.636000", "090007.631000", "090008.626000", "090009.653000", "090010.641000", "090011.628000", "090012.621000", "090013.629000", "090014.635000", "090015.612000", "090016.599000", "090017.634000", "090018.583000", "090019.625000", "090020.616000", "090021.624000", "090022.616000", "090023.620000", "090024.611000", "090025.599000", "090026.598000", "090027.620000", "090028.606000", "090029.627000", "090030.611000", "090031.638000", "090032.657000", "090033.627000", "090034.626000", "090035.631000", "090036.610000", "090037.616000", "090038.621000", "090039.613000", "090040.634000", "090041.661000", "090042.619000", "090043.642000", "090044.619000", "090045.676000", "090046.635000", "090047.629000", "090048.632000", "090049.634000", "090050.625000", "090051.615000", "090052.625000", "090053.609000", "090054.619000", "090055.609000", "090056.617000", "090057.611000", "090058.621000", "090059.628000", "090100.654000", "090101.634000", "090102.622000", "090103.598000", "090104.604000", "090105.638000", "090106.622000", "090107.641000", "090108.619000", "090109.723000", "090110.634000", "090111.630000", "090112.647000", "090113.643000", "090114.639000", "090115.636000", "090116.616000", "090117.638000", "090118.593000", "090119.642000", "090120.618000", "090121.641000", "090122.629000", "090123.639000", "090124.635000", "090125.641000", "090126.640000", "090127.618000", "090128.633000", "090129.651000", "090130.628000", "090131.620000", "090132.637000", "090133.609000", "090134.627000", "090135.617000", "090136.628000", "090137.632000", "090138.640000", "090139.635000", "090140.628000", "090141.594000", "090142.645000", "090143.622000", "090144.647000", "090145.645000", "090146.631000", "090147.637000", "090148.632000", "090149.621000", "090150.635000", "090151.641000", "090152.593000", "090153.630000", "090154.630000", "090155.602000", "090156.614000", "090157.613000", "090158.647000", "090159.645000", "090200.620000", "090201.611000", "090202.595000", "090203.643000", "090204.664000", "090205.603000", "090206.627000", "090207.641000", "090208.634000", "090209.636000", "090210.620000", "090211.628000", "090212.624000", "090213.613000", "090214.624000", "090215.624000", "090216.612000", "090217.648000", "090218.675000", "090219.618000", "090220.623000", "090221.617000", "090222.628000", "090223.636000", "090224.687000", "090225.623000", "090226.618000", "090227.657000", "090228.600000", "090229.681000", "090230.599000", "090231.637000", "090232.620000", "090233.635000", "090234.625000", "090235.622000", "090236.689000", "090237.653000", "090238.646000", "090239.609000", "090240.630000", "090241.624000", "090242.627000", "090243.596000", "090244.629000", "090245.619000", "090246.627000", "090247.613000", "090248.617000", "090249.607000", "090250.626000", "090251.612000", "090252.617000", "090253.619000", "090254.598000", "090255.649000", "090256.640000", "090257.641000", "090258.621000", "090259.629000", "090300.664000", "090301.642000", "090302.639000", "090303.630000", "090304.650000", "090305.637000", "090306.664000", "090307.637000", "090308.633000", "090309.679000", "090310.604000", "090311.630000", "090312.655000", "090313.650000", "090314.632000", "090315.618000", "090316.637000", "090317.649000", "090318.636000", "090319.667000", "090320.663000", "090321.612000", "090322.648000", "090323.594000", "090324.646000", "090325.627000", "090326.635000", "090327.618000", "090328.629000", "090329.610000", "090330.596000", "090331.639000", "090332.619000", "090333.615000", "090334.615000", "090335.597000", "090336.632000", "090337.641000", "090338.619000", "090339.621000", "090340.622000", "090341.616000", "090342.641000", "090343.623000", "090344.655000", "090345.639000", "090346.640000", "090347.629000", "090348.617000", "090349.615000", "090350.635000", "090351.607000", "090352.669000", "090353.652000", "090354.639000", "090355.630000", "090356.659000", "090357.643000", "090358.618000", "090359.645000", "090400.657000", "090401.619000", "090402.644000", "090403.655000", "090404.651000", "090405.665000"],
      "InstanceCreationTime": ["085918.821000", "085919.657000", "085920.631000", "085921.654000", "085922.599000", "085923.645000", "085924.640000", "085925.665000", "085926.620000", "085927.694000", "085928.647000", "085929.628000", "085930.624000", "085931.643000", "085932.645000", "085933.605000", "085934.636000", "085935.613000", "085936.604000", "085937.607000", "085938.603000", "085939.622000", "085940.612000", "085941.660000", "085942.630000", "085943.627000", "085944.604000", "085945.611000", "085946.600000", "085947.650000", "085948.621000", "085949.637000", "085950.635000", "085951.612000", "085952.604000", "085953.640000", "085954.632000", "085955.655000", "085956.640000", "085957.646000", "085958.629000", "085959.617000", "090000.632000", "090001.640000", "090002.634000", "090003.654000", "090004.647000", "090005.654000", "090006.636000", "090007.631000", "090008.626000", "090009.653000", "090010.641000", "090011.628000", "090012.621000", "090013.629000", "090014.635000", "090015.612000", "090016.599000", "090017.634000", "090018.583000", "090019.625000", "090020.616000", "090021.624000", "090022.616000", "090023.620000", "090024.611000", "090025.599000", "090026.598000", "090027.620000", "090028.606000", "090029.627000", "090030.611000", "090031.638000", "090032.657000", "090033.627000", "090034.626000", "090035.631000", "090036.610000", "090037.616000", "090038.621000", "090039.613000", "090040.634000", "090041.661000", "090042.619000", "090043.642000", "090044.619000", "090045.676000", "090046.635000", "090047.629000", "090048.632000", "090049.634000", "090050.625000", "090051.615000", "090052.625000", "090053.609000", "090054.619000", "090055.609000", "090056.617000", "090057.611000", "090058.621000", "090059.628000", "090100.654000", "090101.634000", "090102.622000", "090103.598000", "090104.604000", "090105.638000", "090106.622000", "090107.641000", "090108.619000", "090109.723000", "090110.634000", "090111.630000", "090112.647000", "090113.643000", "090114.639000", "090115.636000", "090116.616000", "090117.638000", "090118.593000", "090119.642000", "090120.618000", "090121.641000", "090122.629000", "090123.639000", "090124.635000", "090125.641000", "090126.640000", "090127.618000", "090128.633000", "090129.651000", "090130.628000", "090131.620000", "090132.637000", "090133.609000", "090134.627000", "090135.617000", "090136.628000", "090137.632000", "090138.640000", "090139.635000", "090140.628000", "090141.594000", "090142.645000", "090143.622000", "090144.647000", "090145.645000", "090146.631000", "090147.637000", "090148.632000", "090149.621000", "090150.635000", "090151.641000", "090152.593000", "090153.630000", "090154.630000", "090155.602000", "090156.614000", "090157.613000", "090158.647000", "090159.645000", "090200.620000", "090201.611000", "090202.595000", "090203.643000", "090204.664000", "090205.603000", "090206.627000", "090207.641000", "090208.634000", "090209.636000", "090210.620000", "090211.628000", "090212.624000", "090213.613000", "090214.624000", "090215.624000", "090216.612000", "090217.648000", "090218.675000", "090219.618000", "090220.623000", "090221.617000", "090222.628000", "090223.636000", "090224.687000", "090225.623000", "090226.618000", "090227.657000", "090228.600000", "090229.681000", "090230.599000", "090231.637000", "090232.620000", "090233.635000", "090234.625000", "090235.622000", "090236.689000", "090237.653000", "090238.646000", "090239.609000", "090240.630000", "090241.624000", "090242.627000", "090243.596000", "090244.629000", "090245.619000", "090246.627000", "090247.613000", "090248.617000", "090249.607000", "090250.626000", "090251.612000", "090252.617000", "090253.619000", "090254.598000", "090255.649000", "090256.640000", "090257.641000", "090258.621000", "090259.629000", "090300.664000", "090301.642000", "090302.639000", "090303.630000", "090304.650000", "090305.637000", "090306.664000", "090307.637000", "090308.633000", "090309.679000", "090310.604000", "090311.630000", "090312.655000", "090313.650000", "090314.632000", "090315.618000", "090316.637000", "090317.649000", "090318.636000", "090319.667000", "090320.663000", "090321.612000", "090322.648000", "090323.594000", "090324.646000", "090325.627000", "090326.635000", "090327.618000", "090328.629000", "090329.610000", "090330.596000", "090331.639000", "090332.619000", "090333.615000", "090334.615000", "090335.597000", "090336.632000", "090337.641000", "090338.619000", "090339.621000", "090340.622000", "090341.616000", "090342.641000", "090343.623000", "090344.655000", "090345.639000", "090346.640000", "090347.629000", "090348.617000", "090349.615000", "090350.635000", "090351.607000", "090352.669000", "090353.652000", "090354.639000", "090355.630000", "090356.659000", "090357.643000", "090358.618000", "090359.645000", "090400.657000", "090401.619000", "090402.644000", "090403.655000", "090404.651000", "090405.665000"],
      "InstanceNumber": [1, 2, 3, 4, 5, 6, 7, 8, 9, 10, 11, 12, 13, 14, 15, 16, 17, 18, 19, 20, 21, 22, 23, 24, 25, 26, 27, 28, 29, 30, 31, 32, 33, 34, 35, 36, 37, 38, 39, 40, 41, 42, 43, 44, 45, 46, 47, 48, 49, 50, 51, 52, 53, 54, 55, 56, 57, 58, 59, 60, 61, 62, 63, 64, 65, 66, 67, 68, 69, 70, 71, 72, 73, 74, 75, 76, 77, 78, 79, 80, 81, 82, 83, 84, 85, 86, 87, 88, 89, 90, 91, 92, 93, 94, 95, 96, 97, 98, 99, 100, 101, 102, 103, 104, 105, 106, 107, 108, 109, 110, 111, 112, 113, 114, 115, 116, 117, 118, 119, 120, 121, 122, 123, 124, 125, 126, 127, 128, 129, 130, 131, 132, 133, 134, 135, 136, 137, 138, 139, 140, 141, 142, 143, 144, 145, 146, 147, 148, 149, 150, 151, 152, 153, 154, 155, 156, 157, 158, 159, 160, 161, 162, 163, 164, 165, 166, 167, 168, 169, 170, 171, 172, 173, 174, 175, 176, 177, 178, 179, 180, 181, 182, 183, 184, 185, 186, 187, 188, 189, 190, 191, 192, 193, 194, 195, 196, 197, 198, 199, 200, 201, 202, 203, 204, 205, 206, 207, 208, 209, 210, 211, 212, 213, 214, 215, 216, 217, 218, 219, 220, 221, 222, 223, 224, 225, 226, 227, 228, 229, 230, 231, 232, 233, 234, 235, 236, 237, 238, 239, 240, 241, 242, 243, 244, 245, 246, 247, 248, 249, 250, 251, 252, 253, 254, 255, 256, 257, 258, 259, 260, 261, 262, 263, 264, 265, 266, 267, 268, 269, 270, 271, 272, 273, 274, 275, 276, 277, 278, 279, 280, 281, 282, 283, 284, 285, 286, 287, 288],
      "LargestImagePixelValue": [1639, 1026, 1150, 1155, 1344, 1665, 1112, 1427, 1598, 1298, 849, 770, 1244, 1370, 975, 975, 1237, 1537, 1085, 961, 1685, 1424, 1170, 1309, 1515, 955, 1112, 1501, 1304, 882, 1022, 1717, 1128, 886, 909, 1690, 1164, 1065, 1368, 1384, 939, 793, 1734, 1142, 831, 874, 1547, 1364, 886, 952, 1349, 1578, 979, 857, 1342, 1443, 1045, 875, 1185, 1586, 1468, 956, 841, 1156, 1572, 1148, 852, 1264, 1325, 1591, 1039, 1161, 892, 907, 1487, 1259, 1013, 962, 1186, 1156, 1648, 1314, 1056, 884, 796, 908, 817, 1025, 1179, 1075, 1408, 1587, 1096, 1035, 1107, 1364, 825, 1091, 1477, 1440, 1179, 1170, 1267, 915, 1218, 1737, 1309, 985, 900, 866, 935, 1190, 1241, 1736, 1312, 1145, 1226, 877, 1068, 1281, 1480, 1430, 1177, 1239, 784, 1005, 1349, 1465, 1102, 970, 1286, 1330, 1524, 1083, 839, 902, 1756, 1215, 833, 1140, 1501, 1171, 876, 796, 948, 1076, 1625, 1008, 1382, 1632, 1021, 767, 779, 1242, 1357, 862, 1189, 1363, 1363, 1285, 855, 773, 1104, 1711, 1148, 843, 983, 1227, 1585, 1049, 862, 917, 1501, 1271, 994, 1287, 1735, 1095, 809, 1315, 1552, 1001, 779, 1324, 1442, 949, 886, 1100, 1614, 1043, 847, 1059, 1304, 1503, 956, 905, 1255, 1495, 1012, 1353, 1486, 961, 813, 893, 1278, 1443, 995, 907, 1467, 1436, 1017, 891, 1334, 1405, 942, 949, 832, 1212, 835, 1146, 1766, 1046, 978, 1204, 1128, 1079, 1332, 1423, 1050, 858, 1223, 772, 1325, 1259, 957, 935, 842, 1074, 970, 1224, 1720, 1307, 968, 1359, 1229, 1382, 990, 796, 776, 1079, 1548, 1389, 1023, 1108, 1315, 1145, 1669, 1326, 1049, 775, 1179, 1214, 1572, 1030, 848, 815, 1035, 1198, 1740, 1105, 1117, 921, 999, 1337, 1623, 1415, 1020, 829, 1232, 1291, 1508, 956, 922, 993, 1633, 1193, 989, 1153],
      "WindowCenter": [404.0, 399.0, 399.0, 398.0, 399.0, 400.0, 397.0, 396.0, 397.0, 395.0, 392.0, 392.0, 396.0, 397.0, 396.0, 395.0, 398.0, 399.0, 397.0, 396.0, 400.0, 398.0, 396.0, 396.0, 398.0, 395.0, 396.0, 398.0, 397.0, 394.0, 396.0, 400.0, 397.0, 396.0, 396.0, 400.0, 397.0, 396.0, 398.0, 397.0, 394.0, 394.0, 399.0, 396.0, 394.0, 395.0, 400.0, 399.0, 396.0, 396.0, 399.0, 400.0, 395.0, 394.0, 398.0, 398.0, 397.0, 396.0, 398.0, 400.0, 398.0, 395.0, 393.0, 396.0, 399.0, 396.0, 394.0, 398.0, 397.0, 398.0, 395.0, 395.0, 394.0, 395.0, 398.0, 397.0, 395.0, 395.0, 396.0, 396.0, 398.0, 396.0, 394.0, 393.0, 393.0, 394.0, 394.0, 396.0, 397.0, 397.0, 398.0, 399.0, 397.0, 396.0, 396.0, 398.0, 393.0, 396.0, 399.0, 398.0, 397.0, 397.0, 397.0, 395.0, 396.0, 398.0, 397.0, 394.0, 394.0, 394.0, 395.0, 397.0, 397.0, 399.0, 397.0, 396.0, 396.0, 394.0, 396.0, 397.0, 398.0, 397.0, 396.0, 396.0, 393.0, 395.0, 397.0, 398.0, 396.0, 396.0, 397.0, 398.0, 398.0, 396.0, 394.0, 394.0, 399.0, 396.0, 393.0, 396.0, 397.0, 396.0, 394.0, 394.0, 395.0, 397.0, 400.0, 396.0, 397.0, 398.0, 394.0, 392.0, 392.0, 396.0, 397.0, 393.0, 396.0, 396.0, 396.0, 396.0, 393.0, 392.0, 395.0, 398.0, 395.0, 393.0, 394.0, 396.0, 398.0, 394.0, 393.0, 394.0, 398.0, 397.0, 396.0, 397.0, 399.0, 396.0, 393.0, 397.0, 398.0, 394.0, 392.0, 396.0, 397.0, 394.0, 393.0, 395.0, 398.0, 395.0, 394.0, 396.0, 398.0, 398.0, 395.0, 395.0, 397.0, 398.0, 394.0, 396.0, 397.0, 394.0, 393.0, 394.0, 397.0, 398.0, 395.0, 395.0, 398.0, 398.0, 394.0, 393.0, 396.0, 397.0, 394.0, 394.0, 394.0, 396.0, 394.0, 396.0, 399.0, 395.0, 395.0, 396.0, 395.0, 396.0, 397.0, 397.0, 395.0, 392.0, 395.0, 392.0, 396.0, 396.0, 395.0, 395.0, 394.0, 396.0, 396.0, 397.0, 399.0, 396.0, 393.0, 396.0, 395.0, 396.0, 394.0, 393.0, 393.0, 396.0, 399.0, 398.0, 396.0, 396.0, 398.0, 396.0, 399.0, 398.0, 396.0, 394.0, 396.0, 396.0, 399.0, 396.0, 395.0, 395.0, 398.0, 398.0, 400.0, 397.0, 396.0, 395.0, 396.0, 398.0, 399.0, 397.0, 395.0, 393.0, 396.0, 397.0, 398.0, 395.0, 395.0, 396.0, 400.0, 397.0, 396.0, 396.0],
      "WindowWidth": [853.0, 845.0, 844.0, 843.0, 845.0, 846.0, 840.0, 839.0, 841.0, 837.0, 833.0, 833.0, 839.0, 840.0, 838.0, 838.0, 842.0, 844.0, 841.0, 840.0, 845.0, 842.0, 839.0, 839.0, 841.0, 837.0, 838.0, 842.0, 840.0, 837.0, 839.0, 845.0, 841.0, 840.0, 840.0, 846.0, 841.0, 839.0, 842.0, 841.0, 836.0, 835.0, 844.0, 839.0, 837.0, 838.0, 845.0, 844.0, 839.0, 840.0, 844.0, 845.0, 839.0, 836.0, 842.0, 842.0, 840.0, 839.0, 842.0, 845.0, 842.0, 837.0, 835.0, 839.0, 843.0, 840.0, 837.0, 842.0, 842.0, 843.0, 838.0, 837.0, 836.0, 837.0, 842.0, 840.0, 838.0, 838.0, 839.0, 838.0, 842.0, 839.0, 837.0, 835.0, 834.0, 836.0, 836.0, 839.0, 841.0, 841.0, 843.0, 844.0, 840.0, 839.0, 839.0, 841.0, 835.0, 840.0, 844.0, 843.0, 841.0, 841.0, 841.0, 837.0, 840.0, 843.0, 840.0, 836.0, 836.0, 836.0, 837.0, 841.0, 840.0, 844.0, 841.0, 840.0, 839.0, 836.0, 839.0, 841.0, 842.0, 841.0, 840.0, 839.0, 835.0, 838.0, 841.0, 842.0, 840.0, 839.0, 841.0, 841.0, 842.0, 839.0, 837.0, 837.0, 844.0, 839.0, 835.0, 838.0, 841.0, 838.0, 836.0, 836.0, 838.0, 841.0, 846.0, 839.0, 840.0, 842.0, 836.0, 833.0, 833.0, 839.0, 840.0, 835.0, 838.0, 838.0, 838.0, 838.0, 834.0, 833.0, 837.0, 841.0, 837.0, 835.0, 836.0, 839.0, 841.0, 836.0, 835.0, 836.0, 842.0, 841.0, 840.0, 840.0, 844.0, 838.0, 835.0, 840.0, 842.0, 836.0, 833.0, 839.0, 839.0, 836.0, 835.0, 837.0, 842.0, 838.0, 836.0, 839.0, 842.0, 842.0, 838.0, 837.0, 841.0, 842.0, 836.0, 839.0, 840.0, 836.0, 834.0, 836.0, 841.0, 842.0, 838.0, 838.0, 843.0, 841.0, 837.0, 834.0, 839.0, 839.0, 836.0, 836.0, 837.0, 839.0, 836.0, 840.0, 844.0, 838.0, 837.0, 839.0, 838.0, 838.0, 840.0, 840.0, 837.0, 833.0, 837.0, 833.0, 838.0, 839.0, 837.0, 837.0, 837.0, 840.0, 839.0, 841.0, 844.0, 840.0, 835.0, 838.0, 837.0, 838.0, 836.0, 834.0, 835.0, 840.0, 843.0, 842.0, 840.0, 839.0, 842.0, 840.0, 844.0, 842.0, 839.0, 836.0, 840.0, 840.0, 843.0, 840.0, 838.0, 838.0, 842.0, 843.0, 845.0, 841.0, 839.0, 839.0, 840.0, 842.0, 843.0, 841.0, 837.0, 835.0, 838.0, 840.0, 842.0, 837.0, 838.0, 840.0, 845.0, 841.0, 839.0, 840.0]
    },
    "slices": {}
  }
}