{
  "AcquisitionMatrixPE": 96,
  "AcquisitionNumber": 1,
  "BandwidthPerPixelPhaseEncode": 18.939,
  "BaseResolution": 96,
  "BodyPartExamined": "BRAIN",
  "ConsistencyInfo": "N4_VE11C_LATEST_20160120",
  "ConversionSoftware": "dcm2niix",
  "ConversionSoftwareVersion": "v1.0.20170923 (OpenJPEG build) GCC6.3.0",
  "DerivedVendorReportedEchoSpacing": 0.000550011,
  "DeviceSerialNumber": "66112",
  "DwellTime": 2.2e-06,
  "EchoTime": 0.033,
  "EchoTrainLength": 96,
  "EffectiveEchoSpacing": 0.000550011,
  "FlipAngle": 59,
  "ImageType": [
    "ORIGINAL",
    "PRIMARY",
    "FMRI",
    "NONE",
    "ND",
    "NORM",
    "MOSAIC"
  ],
  "InstitutionAddress": "Maynard_3_Hanover_NH_US_03755",
  "InstitutionName": "Dartmouth_College_-_PBS",
  "MagneticFieldStrength": 3,
  "Manufacturer": "Siemens",
  "ManufacturersModelName": "Prisma",
  "Modality": "MR",
  "MultibandAccelerationFactor": 4,
  "PercentPhaseFOV": 100,
  "PhaseEncodingDirection": "j-",
  "PhaseEncodingSteps": 96,
  "PhaseResolution": 1,
  "ProcedureStepDescription": "Gobbini_Matteo_1038_hyperface",
  "ProtocolName": "func_run-02_task-visualmemory",
  "PulseSequenceDetails": "%SiemensSeq%_ep2d_bold",
  "ReceiveCoilActiveElements": "HEA;HEP",
  "ReceiveCoilName": "Head_32",
  "ReconMatrixPE": 96,
  "RepetitionTime": 1,
  "ScanOptions": "FS",
  "ScanningSequence": "EP",
  "SequenceName": "_epfid2d1_96",
  "SequenceVariant": "SK",
  "SeriesDescription": "func_run-02_task-visualmemory",
  "SliceTiming": [
    0.735,
    0,
    0.49,
    0.0825,
    0.5725,
    0.1625,
    0.6525,
    0.3275,
    0.8175,
    0.4075,
    0.8975,
    0.245,
    0.735,
    0,
    0.49,
    0.0825,
    0.5725,
    0.1625,
    0.6525,
    0.3275,
    0.8175,
    0.4075,
    0.8975,
    0.245,
    0.735,
    0,
    0.49,
    0.0825,
    0.5725,
    0.1625,
    0.6525,
    0.3275,
    0.8175,
    0.4075,
    0.8975,
    0.245,
    0.735,
    0,
    0.49,
    0.0825,
    0.5725,
    0.1625,
    0.6525,
    0.3275,
    0.8175,
    0.4075,
    0.8975,
    0.245
  ],
  "SoftwareVersions": "syngo_MR_E11",
  "StationName": "AWP66112",
  "TotalReadoutTime": 0.0522511,
  "time": {
    "samples": {
      "AcquisitionNumber": [
        1,
        2,
        3,
        4,
        5,
        6,
        7,
        8,
        9,
        10,
        11,
        12,
        13,
        14,
        15,
        16,
        17,
        18,
        19,
        20,
        21,
        22,
        23,
        24,
        25,
        26,
        27,
        28,
        29,
        30,
        31,
        32,
        33,
        34,
        35,
        36,
        37,
        38,
        39,
        40,
        41,
        42,
        43,
        44,
        45,
        46,
        47,
        48,
        49,
        50,
        51,
        52,
        53,
        54,
        55,
        56,
        57,
        58,
        59,
        60,
        61,
        62,
        63,
        64,
        65,
        66,
        67,
        68,
        69,
        70,
        71,
        72,
        73,
        74,
        75,
        76,
        77,
        78,
        79,
        80,
        81,
        82,
        83,
        84,
        85,
        86,
        87,
        88,
        89,
        90,
        91,
        92,
        93,
        94,
        95,
        96,
        97,
        98,
        99,
        100,
        101,
        102,
        103,
        104,
        105,
        106,
        107,
        108,
        109,
        110,
        111,
        112,
        113,
        114,
        115,
        116,
        117,
        118,
        119,
        120,
        121,
        122,
        123,
        124,
        125,
        126,
        127,
        128,
        129,
        130,
        131,
        132,
        133,
        134,
        135,
        136,
        137,
        138,
        139,
        140,
        141,
        142,
        143,
        144,
        145,
        146,
        147,
        148,
        149,
        150,
        151,
        152,
        153,
        154,
        155,
        156,
        157,
        158,
        159,
        160,
        161,
        162,
        163,
        164,
        165,
        166,
        167,
        168,
        169,
        170,
        171,
        172,
        173,
        174,
        175,
        176,
        177,
        178,
        179,
        180,
        181,
        182,
        183,
        184,
        185,
        186,
        187,
        188,
        189,
        190,
        191,
        192,
        193,
        194,
        195,
        196,
        197,
        198,
        199,
        200,
        201,
        202,
        203,
        204,
        205,
        206,
        207,
        208,
        209,
        210,
        211,
        212,
        213,
        214,
        215,
        216,
        217,
        218,
        219,
        220,
        221,
        222,
        223,
        224,
        225,
        226,
        227,
        228,
        229,
        230,
        231,
        232,
        233,
        234,
        235,
        236,
        237,
        238,
        239,
        240,
        241,
        242,
        243,
        244,
        245,
        246,
        247,
        248,
        249,
        250,
        251,
        252,
        253,
        254,
        255,
        256,
        257,
        258,
        259,
        260,
        261,
        262,
        263,
        264,
        265,
        266,
        267,
        268,
        269,
        270,
        271,
        272,
        273,
        274,
        275,
        276,
        277,
        278,
        279,
        280,
        281,
        282,
        283,
        284,
        285,
        286,
        287,
        288
      ],
      "AcquisitionTime": [
        "162805.282500",
        "162806.282500",
        "162807.282500",
        "162808.282500",
        "162809.282500",
        "162810.282500",
        "162811.282500",
        "162812.282500",
        "162813.282500",
        "162814.282500",
        "162815.282500",
        "162816.282500",
        "162817.282500",
        "162818.282500",
        "162819.282500",
        "162820.282500",
        "162821.282500",
        "162822.282500",
        "162823.282500",
        "162824.282500",
        "162825.282500",
        "162826.282500",
        "162827.282500",
        "162828.282500",
        "162829.282500",
        "162830.282500",
        "162831.282500",
        "162832.282500",
        "162833.282500",
        "162834.282500",
        "162835.282500",
        "162836.282500",
        "162837.282500",
        "162838.282500",
        "162839.282500",
        "162840.282500",
        "162841.282500",
        "162842.282500",
        "162843.282500",
        "162844.282500",
        "162845.282500",
        "162846.282500",
        "162847.282500",
        "162848.282500",
        "162849.282500",
        "162850.282500",
        "162851.282500",
        "162852.282500",
        "162853.282500",
        "162854.282500",
        "162855.282500",
        "162856.282500",
        "162857.282500",
        "162858.282500",
        "162859.282500",
        "162900.282500",
        "162901.282500",
        "162902.282500",
        "162903.282500",
        "162904.282500",
        "162905.282500",
        "162906.282500",
        "162907.282500",
        "162908.282500",
        "162909.282500",
        "162910.282500",
        "162911.282500",
        "162912.282500",
        "162913.282500",
        "162914.282500",
        "162915.282500",
        "162916.282500",
        "162917.282500",
        "162918.282500",
        "162919.282500",
        "162920.282500",
        "162921.282500",
        "162922.282500",
        "162923.282500",
        "162924.282500",
        "162925.282500",
        "162926.282500",
        "162927.282500",
        "162928.282500",
        "162929.282500",
        "162930.282500",
        "162931.282500",
        "162932.282500",
        "162933.282500",
        "162934.282500",
        "162935.282500",
        "162936.282500",
        "162937.282500",
        "162938.282500",
        "162939.282500",
        "162940.282500",
        "162941.282500",
        "162942.282500",
        "162943.282500",
        "162944.282500",
        "162945.282500",
        "162946.282500",
        "162947.282500",
        "162948.282500",
        "162949.282500",
        "162950.282500",
        "162951.282500",
        "162952.282500",
        "162953.282500",
        "162954.282500",
        "162955.282500",
        "162956.282500",
        "162957.282500",
        "162958.282500",
        "162959.282500",
        "163000.282500",
        "163001.282500",
        "163002.282500",
        "163003.282500",
        "163004.282500",
        "163005.282500",
        "163006.282500",
        "163007.282500",
        "163008.282500",
        "163009.282500",
        "163010.282500",
        "163011.282500",
        "163012.282500",
        "163013.282500",
        "163014.282500",
        "163015.282500",
        "163016.282500",
        "163017.282500",
        "163018.282500",
        "163019.282500",
        "163020.282500",
        "163021.282500",
        "163022.282500",
        "163023.282500",
        "163024.282500",
        "163025.282500",
        "163026.282500",
        "163027.282500",
        "163028.282500",
        "163029.282500",
        "163030.282500",
        "163031.282500",
        "163032.282500",
        "163033.282500",
        "163034.282500",
        "163035.282500",
        "163036.282500",
        "163037.282500",
        "163038.282500",
        "163039.282500",
        "163040.282500",
        "163041.282500",
        "163042.282500",
        "163043.282500",
        "163044.282500",
        "163045.282500",
        "163046.282500",
        "163047.282500",
        "163048.282500",
        "163049.282500",
        "163050.282500",
        "163051.282500",
        "163052.282500",
        "163053.282500",
        "163054.282500",
        "163055.282500",
        "163056.282500",
        "163057.282500",
        "163058.282500",
        "163059.282500",
        "163100.282500",
        "163101.282500",
        "163102.282500",
        "163103.282500",
        "163104.282500",
        "163105.282500",
        "163106.282500",
        "163107.282500",
        "163108.282500",
        "163109.282500",
        "163110.282500",
        "163111.282500",
        "163112.282500",
        "163113.282500",
        "163114.282500",
        "163115.282500",
        "163116.282500",
        "163117.282500",
        "163118.282500",
        "163119.282500",
        "163120.282500",
        "163121.282500",
        "163122.282500",
        "163123.282500",
        "163124.282500",
        "163125.282500",
        "163126.282500",
        "163127.282500",
        "163128.282500",
        "163129.282500",
        "163130.282500",
        "163131.282500",
        "163132.282500",
        "163133.282500",
        "163134.282500",
        "163135.282500",
        "163136.282500",
        "163137.282500",
        "163138.282500",
        "163139.282500",
        "163140.282500",
        "163141.282500",
        "163142.282500",
        "163143.282500",
        "163144.282500",
        "163145.282500",
        "163146.282500",
        "163147.282500",
        "163148.282500",
        "163149.282500",
        "163150.282500",
        "163151.282500",
        "163152.282500",
        "163153.282500",
        "163154.282500",
        "163155.282500",
        "163156.282500",
        "163157.282500",
        "163158.282500",
        "163159.282500",
        "163200.282500",
        "163201.282500",
        "163202.282500",
        "163203.282500",
        "163204.282500",
        "163205.282500",
        "163206.282500",
        "163207.282500",
        "163208.282500",
        "163209.282500",
        "163210.282500",
        "163211.282500",
        "163212.282500",
        "163213.282500",
        "163214.282500",
        "163215.282500",
        "163216.282500",
        "163217.282500",
        "163218.282500",
        "163219.282500",
        "163220.282500",
        "163221.282500",
        "163222.282500",
        "163223.282500",
        "163224.282500",
        "163225.282500",
        "163226.282500",
        "163227.282500",
        "163228.282500",
        "163229.282500",
        "163230.282500",
        "163231.282500",
        "163232.282500",
        "163233.282500",
        "163234.282500",
        "163235.282500",
        "163236.282500",
        "163237.282500",
        "163238.282500",
        "163239.282500",
        "163240.282500",
        "163241.282500",
        "163242.282500",
        "163243.282500",
        "163244.282500",
        "163245.282500",
        "163246.282500",
        "163247.282500",
        "163248.282500",
        "163249.282500",
        "163250.282500",
        "163251.282500",
        "163252.282500"
      ],
      "ContentTime": [
        "162806.876000",
        "162807.731000",
        "162808.732000",
        "162809.727000",
        "162810.738000",
        "162811.724000",
        "162812.755000",
        "162813.734000",
        "162814.720000",
        "162815.712000",
        "162816.710000",
        "162817.725000",
        "162818.709000",
        "162819.709000",
        "162820.729000",
        "162821.721000",
        "162822.699000",
        "162823.734000",
        "162824.733000",
        "162825.696000",
        "162826.706000",
        "162827.725000",
        "162828.703000",
        "162829.719000",
        "162830.739000",
        "162831.710000",
        "162832.733000",
        "162833.747000",
        "162834.728000",
        "162835.706000",
        "162836.727000",
        "162837.722000",
        "162838.714000",
        "162839.711000",
        "162840.720000",
        "162841.712000",
        "162842.729000",
        "162843.717000",
        "162844.731000",
        "162845.740000",
        "162846.712000",
        "162847.719000",
        "162848.746000",
        "162849.713000",
        "162850.708000",
        "162851.726000",
        "162852.737000",
        "162853.700000",
        "162854.707000",
        "162855.736000",
        "162856.761000",
        "162857.738000",
        "162858.701000",
        "162859.709000",
        "162900.751000",
        "162901.715000",
        "162902.713000",
        "162903.706000",
        "162904.694000",
        "162905.720000",
        "162906.740000",
        "162907.724000",
        "162908.706000",
        "162909.713000",
        "162910.739000",
        "162911.718000",
        "162912.728000",
        "162913.746000",
        "162914.748000",
        "162915.762000",
        "162916.717000",
        "162917.709000",
        "162918.713000",
        "162919.743000",
        "162920.719000",
        "162921.715000",
        "162922.736000",
        "162923.719000",
        "162924.754000",
        "162925.765000",
        "162926.722000",
        "162927.732000",
        "162928.706000",
        "162929.708000",
        "162930.721000",
        "162931.718000",
        "162932.703000",
        "162933.716000",
        "162934.811000",
        "162935.691000",
        "162936.719000",
        "162937.728000",
        "162938.714000",
        "162939.710000",
        "162940.707000",
        "162941.778000",
        "162942.737000",
        "162943.729000",
        "162944.769000",
        "162945.761000",
        "162946.733000",
        "162947.757000",
        "162948.773000",
        "162949.759000",
        "162950.714000",
        "162951.721000",
        "162952.730000",
        "162953.711000",
        "162954.789000",
        "162955.744000",
        "162956.720000",
        "162957.726000",
        "162958.723000",
        "162959.769000",
        "163000.730000",
        "163001.725000",
        "163002.779000",
        "163003.733000",
        "163004.741000",
        "163005.714000",
        "163006.744000",
        "163007.724000",
        "163008.723000",
        "163009.742000",
        "163010.771000",
        "163011.738000",
        "163012.715000",
        "163013.722000",
        "163014.747000",
        "163015.732000",
        "163016.721000",
        "163017.740000",
        "163018.731000",
        "163019.731000",
        "163020.732000",
        "163021.722000",
        "163022.711000",
        "163023.723000",
        "163024.722000",
        "163025.745000",
        "163026.745000",
        "163027.731000",
        "163028.729000",
        "163029.719000",
        "163030.725000",
        "163031.707000",
        "163032.718000",
        "163033.732000",
        "163034.704000",
        "163035.738000",
        "163036.709000",
        "163037.722000",
        "163038.708000",
        "163039.730000",
        "163040.738000",
        "163041.729000",
        "163042.723000",
        "163043.771000",
        "163044.768000",
        "163045.733000",
        "163046.723000",
        "163047.730000",
        "163048.756000",
        "163049.722000",
        "163050.723000",
        "163051.699000",
        "163052.701000",
        "163053.710000",
        "163054.713000",
        "163055.722000",
        "163056.736000",
        "163057.707000",
        "163058.732000",
        "163059.698000",
        "163100.732000",
        "163101.755000",
        "163102.737000",
        "163103.736000",
        "163104.726000",
        "163105.686000",
        "163106.723000",
        "163107.779000",
        "163108.763000",
        "163109.718000",
        "163110.710000",
        "163111.722000",
        "163112.717000",
        "163113.762000",
        "163114.819000",
        "163115.748000",
        "163116.716000",
        "163117.728000",
        "163118.738000",
        "163119.711000",
        "163120.739000",
        "163121.734000",
        "163122.685000",
        "163123.725000",
        "163124.704000",
        "163125.738000",
        "163126.693000",
        "163127.738000",
        "163128.735000",
        "163129.744000",
        "163130.713000",
        "163131.718000",
        "163132.715000",
        "163133.775000",
        "163134.716000",
        "163135.690000",
        "163136.753000",
        "163137.697000",
        "163138.725000",
        "163139.685000",
        "163140.719000",
        "163141.700000",
        "163142.744000",
        "163143.701000",
        "163144.746000",
        "163145.727000",
        "163146.723000",
        "163147.745000",
        "163148.715000",
        "163149.732000",
        "163150.740000",
        "163151.759000",
        "163152.726000",
        "163153.714000",
        "163154.696000",
        "163155.703000",
        "163156.750000",
        "163157.721000",
        "163158.726000",
        "163159.729000",
        "163200.729000",
        "163201.725000",
        "163202.707000",
        "163203.739000",
        "163204.737000",
        "163205.697000",
        "163206.764000",
        "163207.702000",
        "163208.729000",
        "163209.708000",
        "163210.722000",
        "163211.722000",
        "163212.750000",
        "163213.730000",
        "163214.707000",
        "163215.742000",
        "163216.690000",
        "163217.762000",
        "163218.724000",
        "163219.729000",
        "163220.747000",
        "163221.738000",
        "163222.748000",
        "163223.701000",
        "163224.774000",
        "163225.712000",
        "163226.710000",
        "163227.759000",
        "163228.716000",
        "163229.708000",
        "163230.728000",
        "163231.726000",
        "163232.729000",
        "163233.719000",
        "163234.731000",
        "163235.765000",
        "163236.736000",
        "163237.736000",
        "163238.713000",
        "163239.732000",
        "163240.750000",
        "163241.726000",
        "163242.737000",
        "163243.725000",
        "163244.712000",
        "163245.716000",
        "163246.729000",
        "163247.749000",
        "163248.713000",
        "163249.740000",
        "163250.740000",
        "163251.710000",
        "163252.722000",
        "163253.767000"
      ],
      "InstanceCreationTime": [
        "162806.876000",
        "162807.731000",
        "162808.732000",
        "162809.727000",
        "162810.738000",
        "162811.724000",
        "162812.755000",
        "162813.734000",
        "162814.720000",
        "162815.712000",
        "162816.710000",
        "162817.725000",
        "162818.709000",
        "162819.709000",
        "162820.729000",
        "162821.721000",
        "162822.699000",
        "162823.734000",
        "162824.733000",
        "162825.696000",
        "162826.706000",
        "162827.725000",
        "162828.703000",
        "162829.719000",
        "162830.739000",
        "162831.710000",
        "162832.733000",
        "162833.747000",
        "162834.728000",
        "162835.706000",
        "162836.727000",
        "162837.722000",
        "162838.714000",
        "162839.711000",
        "162840.720000",
        "162841.712000",
        "162842.729000",
        "162843.717000",
        "162844.731000",
        "162845.740000",
        "162846.712000",
        "162847.719000",
        "162848.746000",
        "162849.713000",
        "162850.708000",
        "162851.726000",
        "162852.737000",
        "162853.700000",
        "162854.707000",
        "162855.736000",
        "162856.761000",
        "162857.738000",
        "162858.701000",
        "162859.709000",
        "162900.751000",
        "162901.715000",
        "162902.713000",
        "162903.706000",
        "162904.694000",
        "162905.720000",
        "162906.740000",
        "162907.724000",
        "162908.706000",
        "162909.713000",
        "162910.739000",
        "162911.718000",
        "162912.728000",
        "162913.746000",
        "162914.748000",
        "162915.762000",
        "162916.717000",
        "162917.709000",
        "162918.713000",
        "162919.743000",
        "162920.719000",
        "162921.715000",
        "162922.736000",
        "162923.719000",
        "162924.754000",
        "162925.765000",
        "162926.722000",
        "162927.732000",
        "162928.706000",
        "162929.708000",
        "162930.721000",
        "162931.718000",
        "162932.703000",
        "162933.716000",
        "162934.811000",
        "162935.691000",
        "162936.719000",
        "162937.728000",
        "162938.714000",
        "162939.710000",
        "162940.707000",
        "162941.778000",
        "162942.737000",
        "162943.729000",
        "162944.769000",
        "162945.761000",
        "162946.733000",
        "162947.757000",
        "162948.773000",
        "162949.759000",
        "162950.714000",
        "162951.721000",
        "162952.730000",
        "162953.711000",
        "162954.789000",
        "162955.744000",
        "162956.720000",
        "162957.726000",
        "162958.723000",
        "162959.769000",
        "163000.730000",
        "163001.725000",
        "163002.779000",
        "163003.733000",
        "163004.741000",
        "163005.714000",
        "163006.744000",
        "163007.724000",
        "163008.723000",
        "163009.742000",
        "163010.771000",
        "163011.738000",
        "163012.715000",
        "163013.722000",
        "163014.747000",
        "163015.732000",
        "163016.721000",
        "163017.740000",
        "163018.731000",
        "163019.731000",
        "163020.732000",
        "163021.722000",
        "163022.711000",
        "163023.723000",
        "163024.722000",
        "163025.745000",
        "163026.745000",
        "163027.731000",
        "163028.729000",
        "163029.719000",
        "163030.725000",
        "163031.707000",
        "163032.718000",
        "163033.732000",
        "163034.704000",
        "163035.738000",
        "163036.709000",
        "163037.722000",
        "163038.708000",
        "163039.730000",
        "163040.738000",
        "163041.729000",
        "163042.723000",
        "163043.771000",
        "163044.768000",
        "163045.733000",
        "163046.723000",
        "163047.730000",
        "163048.756000",
        "163049.722000",
        "163050.723000",
        "163051.699000",
        "163052.701000",
        "163053.710000",
        "163054.713000",
        "163055.722000",
        "163056.736000",
        "163057.707000",
        "163058.732000",
        "163059.698000",
        "163100.732000",
        "163101.755000",
        "163102.737000",
        "163103.736000",
        "163104.726000",
        "163105.686000",
        "163106.723000",
        "163107.779000",
        "163108.763000",
        "163109.718000",
        "163110.710000",
        "163111.722000",
        "163112.717000",
        "163113.762000",
        "163114.819000",
        "163115.748000",
        "163116.716000",
        "163117.728000",
        "163118.738000",
        "163119.711000",
        "163120.739000",
        "163121.734000",
        "163122.685000",
        "163123.725000",
        "163124.704000",
        "163125.738000",
        "163126.693000",
        "163127.738000",
        "163128.735000",
        "163129.744000",
        "163130.713000",
        "163131.718000",
        "163132.715000",
        "163133.775000",
        "163134.716000",
        "163135.690000",
        "163136.753000",
        "163137.697000",
        "163138.725000",
        "163139.685000",
        "163140.719000",
        "163141.700000",
        "163142.744000",
        "163143.701000",
        "163144.746000",
        "163145.727000",
        "163146.723000",
        "163147.745000",
        "163148.715000",
        "163149.732000",
        "163150.740000",
        "163151.759000",
        "163152.726000",
        "163153.714000",
        "163154.696000",
        "163155.703000",
        "163156.750000",
        "163157.721000",
        "163158.726000",
        "163159.729000",
        "163200.729000",
        "163201.725000",
        "163202.707000",
        "163203.739000",
        "163204.737000",
        "163205.697000",
        "163206.764000",
        "163207.702000",
        "163208.729000",
        "163209.708000",
        "163210.722000",
        "163211.722000",
        "163212.750000",
        "163213.730000",
        "163214.707000",
        "163215.742000",
        "163216.690000",
        "163217.762000",
        "163218.724000",
        "163219.729000",
        "163220.747000",
        "163221.738000",
        "163222.748000",
        "163223.701000",
        "163224.774000",
        "163225.712000",
        "163226.710000",
        "163227.759000",
        "163228.716000",
        "163229.708000",
        "163230.728000",
        "163231.726000",
        "163232.729000",
        "163233.719000",
        "163234.731000",
        "163235.765000",
        "163236.736000",
        "163237.736000",
        "163238.713000",
        "163239.732000",
        "163240.750000",
        "163241.726000",
        "163242.737000",
        "163243.725000",
        "163244.712000",
        "163245.716000",
        "163246.729000",
        "163247.749000",
        "163248.713000",
        "163249.740000",
        "163250.740000",
        "163251.710000",
        "163252.722000",
        "163253.767000"
      ],
      "InstanceNumber": [
        1,
        2,
        3,
        4,
        5,
        6,
        7,
        8,
        9,
        10,
        11,
        12,
        13,
        14,
        15,
        16,
        17,
        18,
        19,
        20,
        21,
        22,
        23,
        24,
        25,
        26,
        27,
        28,
        29,
        30,
        31,
        32,
        33,
        34,
        35,
        36,
        37,
        38,
        39,
        40,
        41,
        42,
        43,
        44,
        45,
        46,
        47,
        48,
        49,
        50,
        51,
        52,
        53,
        54,
        55,
        56,
        57,
        58,
        59,
        60,
        61,
        62,
        63,
        64,
        65,
        66,
        67,
        68,
        69,
        70,
        71,
        72,
        73,
        74,
        75,
        76,
        77,
        78,
        79,
        80,
        81,
        82,
        83,
        84,
        85,
        86,
        87,
        88,
        89,
        90,
        91,
        92,
        93,
        94,
        95,
        96,
        97,
        98,
        99,
        100,
        101,
        102,
        103,
        104,
        105,
        106,
        107,
        108,
        109,
        110,
        111,
        112,
        113,
        114,
        115,
        116,
        117,
        118,
        119,
        120,
        121,
        122,
        123,
        124,
        125,
        126,
        127,
        128,
        129,
        130,
        131,
        132,
        133,
        134,
        135,
        136,
        137,
        138,
        139,
        140,
        141,
        142,
        143,
        144,
        145,
        146,
        147,
        148,
        149,
        150,
        151,
        152,
        153,
        154,
        155,
        156,
        157,
        158,
        159,
        160,
        161,
        162,
        163,
        164,
        165,
        166,
        167,
        168,
        169,
        170,
        171,
        172,
        173,
        174,
        175,
        176,
        177,
        178,
        179,
        180,
        181,
        182,
        183,
        184,
        185,
        186,
        187,
        188,
        189,
        190,
        191,
        192,
        193,
        194,
        195,
        196,
