{
  "AcquisitionMatrixPE": 120,
  "AcquisitionNumber": 1,
  "AcquisitionTime": "16:57:2.500000",
  "BandwidthPerPixelPhaseEncode": 13.889,
  "BaseResolution": 120,
  "BodyPartExamined": "BRAIN",
  "ConsistencyInfo": "N4_VE11C_LATEST_20160120",
  "ConversionSoftware": "dcm2niix",
  "ConversionSoftwareVersion": "v1.0.20170923 (OpenJPEG build) GCC6.3.0",
  "DerivedVendorReportedEchoSpacing": 0.000599995,
  "DeviceSerialNumber": "66112",
  "DwellTime": 2e-06,
  "EchoTime": 0.103,
  "EchoTrainLength": 120,
  "EffectiveEchoSpacing": 0.000599995,
  "FlipAngle": 90,
  "ImageType": [
    "ORIGINAL",
    "PRIMARY",
    "DIFFUSION",
    "NONE",
    "ND",
    "NORM",
    "MOSAIC"
],
  "InstitutionAddress": "Maynard_3_Hanover_NH_US_03755",
  "InstitutionName": "Dartmouth_College_-_PBS",
  "MagneticFieldStrength": 3,
  "Manufacturer": "Siemens",
  "ManufacturersModelName": "Prisma",
  "Modality": "MR",
  "MultibandAccelerationFactor": 4,
  "PartialFourier": 1,
  "PercentPhaseFOV": 100,
  "PhaseEncodingDirection": "j-",
  "PhaseEncodingSteps": 120,
  "PhaseResolution": 1,
  "ProcedureStepDescription": "Gobbini_Matteo_1038_hyperface",
  "ProtocolName": "dwi_acq-2.0mmXhardi96Xsms4X11b0",
  "PulseSequenceDetails": "%SiemensSeq%_ep2d_diff",
  "ReceiveCoilActiveElements": "HEA;HEP",
  "ReceiveCoilName": "Head_32",
  "ReconMatrixPE": 120,
  "RepetitionTime": 2.6,
  "ScanOptions": "FS",
  "ScanningSequence": "EP",
  "SequenceName": "_ep_b0",
  "SequenceVariant": "SK_SP",
  "SeriesDescription": "dwi_acq-2.0mmXhardi96Xsms4X11b0",
  "SliceTiming": [1.935, 0, 1.29, 0.1625, 1.4525, 0.3225, 1.6125, 0.485, 1.775, 0.8075, 2.0975, 0.9675, 2.2575, 1.13, 2.42, 0.645, 1.935, 0, 1.29, 0.1625, 1.4525, 0.3225, 1.6125, 0.485, 1.775, 0.8075, 2.0975, 0.9675, 2.2575, 1.13, 2.42, 0.645, 1.935, 0, 1.29, 0.1625, 1.4525, 0.3225, 1.6125, 0.485, 1.775, 0.8075, 2.0975, 0.9675, 2.2575, 1.13, 2.42, 0.645, 1.935, 0, 1.29, 0.1625, 1.4525, 0.3225, 1.6125, 0.485, 1.775, 0.8075, 2.0975, 0.9675, 2.2575, 1.13, 2.42, 0.645],
  "SoftwareVersions": "syngo_MR_E11",
  "StationName": "AWP66112",
  "TotalReadoutTime": 0.0713994,
  "dcmmeta_affine": [
    [-1.9994900226593018, -0.041883256286382675, -0.016888119280338287, 128.81947326660156],
    [-0.042380042374134064, 1.9986211061477661, 0.0609729066491127, -99.07599639892578],
    [-0.01559960376471281, -0.06131521984934807, 1.998998999595642, -74.66582489013672],
    [0.0, 0.0, 0.0, 1.0]
],
  "dcmmeta_reorient_transform": [
    [0.0, -1.0, 0.0, 119.0],
    [1.0, 0.0, 0.0, 0.0],
    [0.0, 0.0, 1.0, 0.0],
    [0.0, 0.0, 0.0, 1.0]
],
  "dcmmeta_shape": [120, 120, 64, 107],
  "dcmmeta_slice_dim": 2,
  "dcmmeta_version": 0.6,
  "global": {
    "const": {
      "AccessionNumber": "A001160",
      "AcquisitionMatrix": [120, 0, 0, 120],
      "AngioFlag": "N",
      "BitsAllocated": 16,
      "BitsStored": 12,
      "BodyPartExamined": "BRAIN",
      "Columns": 960,
      "EchoNumbers": 1,
      "EchoTime": 103.0,
      "EchoTrainLength": 120,
      "FlipAngle": 90.0,
      "HighBit": 11,
      "ImageOrientationPatient": [0.99974504053256, 0.02119002178883, -0.0077998017372, -0.0209416281383, 0.99931054188531, 0.03065761060169],
      "ImagePositionPatient": [-946.03022935538, -995.98038777635, -101.16289500844],
      "ImageType": [
        "ORIGINAL",
        "PRIMARY",
        "DIFFUSION",
        "NONE",
        "ND",
        "NORM",
        "MOSAIC"
],
      "ImagedNucleus": "1H",
      "ImagingFrequency": 123.25257,
      "InPlanePhaseEncodingDirection": "COL",
      "MRAcquisitionType": "2D",
      "MagneticFieldStrength": 3.0,
      "Manufacturer": "SIEMENS",
      "ManufacturerModelName": "Prisma",
      "Modality": "MR",
      "NumberOfAverages": 1.0,
      "NumberOfPhaseEncodingSteps": 120,
      "PercentPhaseFieldOfView": 100.0,
      "PercentSampling": 100.0,
      "PerformedProcedureStepStartTime": "160115.265000",
      "PhotometricInterpretation": "MONOCHROME2",
      "PixelBandwidth": 2085.0,
      "PixelRepresentation": 0,
      "PixelSpacing": [2.0, 2.0],
      "PositionReferenceIndicator": "",
      "ProtocolName": "dwi_acq-2.0mmXhardi96Xsms4X11b0",
      "RepetitionTime": 2600.0,
      "Rows": 960,
      "SAR": 0.36167837405397,
      "SamplesPerPixel": 1,
      "ScanOptions": "FS",
      "ScanningSequence": "EP",
      "SequenceVariant": [
        "SK",
        "SP"
],
      "SeriesDescription": "dwi_acq-2.0mmXhardi96Xsms4X11b0",
      "SeriesNumber": 65,
      "SeriesTime": "165737.912000",
      "SliceLocation": -78.73668986519,
      "SliceThickness": 2.0,
      "SmallestImagePixelValue": 0,
      "SoftwareVersions": "syngo MR E11",
      "SpacingBetweenSlices": 1.9999999506678,
      "SpecificCharacterSet": "ISO_IR 100",
      "StudyID": "3",
      "StudyTime": "160115.224000",
      "TransmitCoilName": "Body",
      "VariableFlipAngleFlag": "N",
      "WindowCenterWidthExplanation": "Algo1",
      "dBdt": 0.0},
    "slices": {}
  },
  "time": {
    "samples": {
      "AcquisitionNumber": [1, 2, 3, 4, 5, 6, 7, 8, 9, 10, 11, 12, 13, 14, 15, 16, 17, 18, 19, 20, 21, 22, 23, 24, 25, 26, 27, 28, 29, 30, 31, 32, 33, 34, 35, 36, 37, 38, 39, 40, 41, 42, 43, 44, 45, 46, 47, 48, 49, 50, 51, 52, 53, 54, 55, 56, 57, 58, 59, 60, 61, 62, 63, 64, 65, 66, 67, 68, 69, 70, 71, 72, 73, 74, 75, 76, 77, 78, 79, 80, 81, 82, 83, 84, 85, 86, 87, 88, 89, 90, 91, 92, 93, 94, 95, 96, 97, 98, 99, 100, 101, 102, 103, 104, 105, 106, 107],
      "AcquisitionTime": ["165702.500000", "165705.100000", "165707.700000", "165710.300000", "165712.900000", "165715.500000", "165718.100000", "165720.700000", "165723.300000", "165725.900000", "165728.500000", "165731.100000", "165733.700000", "165736.300000", "165738.900000", "165741.500000", "165744.100000", "165746.700000", "165749.300000", "165751.900000", "165754.500000", "165757.100000", "165759.700000", "165802.300000", "165804.900000", "165807.500000", "165810.100000", "165812.700000", "165815.300000", "165817.900000", "165820.500000", "165823.100000", "165825.700000", "165828.300000", "165830.900000", "165833.500000", "165836.100000", "165838.700000", "165841.300000", "165843.900000", "165846.500000", "165849.100000", "165851.700000", "165854.300000", "165856.900000", "165859.500000", "165902.100000", "165904.700000", "165907.300000", "165909.900000", "165912.500000", "165915.100000", "165917.700000", "165920.300000", "165922.900000", "165925.500000", "165928.100000", "165930.700000", "165933.300000", "165935.900000", "165938.500000", "165941.100000", "165943.700000", "165946.300000", "165948.900000", "165951.500000", "165954.100000", "165956.700000", "165959.300000", "170001.900000", "170004.500000", "170007.100000", "170009.700000", "170012.300000", "170014.900000", "170017.500000", "170020.100000", "170022.700000", "170025.300000", "170027.900000", "170030.500000", "170033.100000", "170035.700000", "170038.300000", "170040.900000", "170043.500000", "170046.100000", "170048.700000", "170051.300000", "170053.900000", "170056.500000", "170059.100000", "170101.700000", "170104.300000", "170106.900000", "170109.500000", "170112.100000", "170114.700000", "170117.300000", "170119.900000", "170122.500000", "170125.100000", "170127.700000", "170130.300000", "170132.900000", "170135.500000", "170138.100000"],
      "ContentTime": ["165737.916000", "165737.920000", "165737.923000", "165737.926000", "165737.929000", "165737.932000", "165737.946000", "165737.949000", "165737.952000", "165737.955000", "165737.958000", "165737.961000", "165737.965000", "165837.911000", "165837.915000", "165837.918000", "165837.921000", "165837.924000", "165837.927000", "165837.930000", "165837.940000", "165837.943000", "165837.946000", "165837.950000", "165837.953000", "165837.956000", "165837.959000", "165837.962000", "165837.966000", "165837.969000", "165837.972000", "165837.975000", "165837.978000", "165837.981000", "165837.984000", "165837.988000", "165837.991000", "165937.912000", "165937.935000", "165937.938000", "165937.941000", "165937.944000", "165937.947000", "165937.951000", "165937.954000", "165937.957000", "165937.960000", "165937.963000", "165937.967000", "165937.970000", "165937.973000", "165937.976000", "165937.979000", "165937.983000", "165937.986000", "165937.989000", "165937.992000", "165937.995000", "165937.999000", "165938.002000", "170037.911000", "170037.915000", "170037.918000", "170037.921000", "170037.924000", "170037.928000", "170037.931000", "170037.934000", "170037.937000", "170037.940000", "170037.944000", "170037.947000", "170037.950000", "170037.953000", "170037.956000", "170037.959000", "170037.963000", "170037.966000", "170037.969000", "170037.972000", "170037.975000", "170037.978000", "170037.981000", "170137.911000", "170137.915000", "170137.918000", "170137.921000", "170137.924000", "170137.927000", "170137.931000", "170137.934000", "170137.937000", "170137.940000", "170137.943000", "170137.947000", "170137.950000", "170137.953000", "170137.956000", "170137.959000", "170137.962000", "170137.965000", "170137.969000", "170137.972000", "170137.975000", "170137.978000", "170137.981000", "170141.921000"],
      "InstanceCreationTime": ["165737.916000", "165737.920000", "165737.923000", "165737.926000", "165737.929000", "165737.932000", "165737.946000", "165737.949000", "165737.952000", "165737.955000", "165737.958000", "165737.961000", "165737.965000", "165837.911000", "165837.915000", "165837.918000", "165837.921000", "165837.924000", "165837.927000", "165837.930000", "165837.940000", "165837.943000", "165837.946000", "165837.950000", "165837.953000", "165837.956000", "165837.959000", "165837.962000", "165837.966000", "165837.969000", "165837.972000", "165837.975000", "165837.978000", "165837.981000", "165837.984000", "165837.988000", "165837.991000", "165937.912000", "165937.935000", "165937.938000", "165937.941000", "165937.944000", "165937.947000", "165937.951000", "165937.954000", "165937.957000", "165937.960000", "165937.963000", "165937.967000", "165937.970000", "165937.973000", "165937.976000", "165937.979000", "165937.983000", "165937.986000", "165937.989000", "165937.992000", "165937.995000", "165937.999000", "165938.002000", "170037.911000", "170037.915000", "170037.918000", "170037.921000", "170037.924000", "170037.928000", "170037.931000", "170037.934000", "170037.937000", "170037.940000", "170037.944000", "170037.947000", "170037.950000", "170037.953000", "170037.956000", "170037.959000", "170037.963000", "170037.966000", "170037.969000", "170037.972000", "170037.975000", "170037.978000", "170037.981000", "170137.911000", "170137.915000", "170137.918000", "170137.921000", "170137.924000", "170137.927000", "170137.931000", "170137.934000", "170137.937000", "170137.940000", "170137.943000", "170137.947000", "170137.950000", "170137.953000", "170137.956000", "170137.959000", "170137.962000", "170137.965000", "170137.969000", "170137.972000", "170137.975000", "170137.978000", "170137.981000", "170141.921000"],
      "InstanceNumber": [1, 2, 3, 4, 5, 6, 7, 8, 9, 10, 11, 12, 13, 14, 15, 16, 17, 18, 19, 20, 21, 22, 23, 24, 25, 26, 27, 28, 29, 30, 31, 32, 33, 34, 35, 36, 37, 38, 39, 40, 41, 42, 43, 44, 45, 46, 47, 48, 49, 50, 51, 52, 53, 54, 55, 56, 57, 58, 59, 60, 61, 62, 63, 64, 65, 66, 67, 68, 69, 70, 71, 72, 73, 74, 75, 76, 77, 78, 79, 80, 81, 82, 83, 84, 85, 86, 87, 88, 89, 90, 91, 92, 93, 94, 95, 96, 97, 98, 99, 100, 101, 102, 103, 104, 105, 106, 107],
      "LargestImagePixelValue": [1768, 1851, 489, 461, 496, 524, 508, 498, 529, 452, 490, 1878, 528, 530, 528, 510, 483, 476, 486, 534, 452, 482, 2095, 463, 464, 527, 468, 517, 486, 468, 514, 463, 543, 1788, 553, 437, 386, 435, 493, 476, 500, 487, 525, 498, 1936, 435, 452, 479, 484, 443, 481, 494, 499, 440, 461, 2032, 493, 470, 457, 535, 487, 488, 441, 518, 514, 494, 1838, 501, 474, 481, 499, 492, 426, 470, 438, 498, 488, 1631, 483, 446, 486, 439, 515, 488, 529, 536, 478, 1930, 433, 484, 467, 516, 566, 460, 526, 494, 522, 1741, 469, 499, 449, 520, 511, 538, 496, 526, 446],
      "SequenceName": [
        "*ep_b0",
        "*ep_b0",
        "*ep_b1000#2",
        "*ep_b1000#3",
        "*ep_b1000#4",
        "*ep_b1000#5",
        "*ep_b1000#6",
        "*ep_b1000#7",
        "*ep_b1000#8",
        "*ep_b1000#9",
        "*ep_b1000#10",
        "*ep_b0",
        "*ep_b1000#12",
        "*ep_b1000#13",
        "*ep_b1000#14",
        "*ep_b1000#15",
        "*ep_b1000#16",
        "*ep_b1000#17",
        "*ep_b1000#18",
        "*ep_b1000#19",
        "*ep_b1000#20",
        "*ep_b1000#21",
        "*ep_b0",
        "*ep_b1000#23",
        "*ep_b1000#24",
        "*ep_b1000#25",
        "*ep_b1000#26",
        "*ep_b1000#27",
        "*ep_b1000#28",
        "*ep_b1000#29",
        "*ep_b1000#30",
        "*ep_b1000#31",
        "*ep_b1000#32",
        "*ep_b0",
        "*ep_b1000#34",
        "*ep_b1000#35",
        "*ep_b1000#36",
        "*ep_b1000#37",
        "*ep_b1000#38",
        "*ep_b1000#39",
        "*ep_b1000#40",
        "*ep_b1000#41",
        "*ep_b1000#42",
        "*ep_b1000#43",
        "*ep_b0",
        "*ep_b1000#45",
        "*ep_b1000#46",
        "*ep_b1000#47",
        "*ep_b1000#48",
        "*ep_b1000#49",
        "*ep_b1000#50",
        "*ep_b1000#51",
        "*ep_b1000#52",
        "*ep_b1000#53",
        "*ep_b1000#54",
        "*ep_b0",
        "*ep_b1000#56",
        "*ep_b1000#57",
        "*ep_b1000#58",
        "*ep_b1000#59",
        "*ep_b1000#60",
        "*ep_b1000#61",
        "*ep_b1000#62",
        "*ep_b1000#63",
        "*ep_b1000#64",
        "*ep_b1000#65",
        "*ep_b0",
        "*ep_b1000#67",
        "*ep_b1000#68",
        "*ep_b1000#69",
        "*ep_b1000#70",
        "*ep_b1000#71",
        "*ep_b1000#72",
        "*ep_b1000#73",
        "*ep_b1000#74",
        "*ep_b1000#75",
        "*ep_b1000#76",
        "*ep_b0",
        "*ep_b1000#78",
        "*ep_b1000#79",
        "*ep_b1000#80",
        "*ep_b1000#81",
        "*ep_b1000#82",
        "*ep_b1000#83",
        "*ep_b1000#84",
        "*ep_b1000#85",
        "*ep_b1000#86",
        "*ep_b0",
        "*ep_b1000#88",
        "*ep_b1000#89",
        "*ep_b1000#90",
        "*ep_b1000#91",
        "*ep_b1000#92",
        "*ep_b1000#93",
        "*ep_b1000#94",
        "*ep_b1000#95",
        "*ep_b1000#96",
        "*ep_b0",
        "*ep_b1000#98",
        "*ep_b1000#99",
        "*ep_b1000#100",
        "*ep_b1000#101",
        "*ep_b1000#102",
        "*ep_b1000#103",
        "*ep_b1000#104",
        "*ep_b1000#105",
        "*ep_b1000#106"
],
      "WindowCenter": [202.0, 203.0, 88.0, 91.0, 89.0, 90.0, 89.0, 88.0, 90.0, 87.0, 90.0, 202.0, 90.0, 89.0, 88.0, 89.0, 90.0, 88.0, 89.0, 90.0, 88.0, 90.0, 210.0, 89.0, 90.0, 89.0, 89.0, 90.0, 88.0, 90.0, 88.0, 89.0, 91.0, 198.0, 90.0, 89.0, 86.0, 90.0, 88.0, 90.0, 89.0, 89.0, 89.0, 90.0, 203.0, 88.0, 88.0, 90.0, 89.0, 89.0, 88.0, 89.0, 89.0, 89.0, 89.0, 207.0, 89.0, 87.0, 89.0, 88.0, 91.0, 89.0, 89.0, 88.0, 89.0, 89.0, 202.0, 89.0, 91.0, 89.0, 88.0, 89.0, 87.0, 90.0, 88.0, 90.0, 88.0, 197.0, 90.0, 89.0, 89.0, 88.0, 90.0, 88.0, 90.0, 89.0, 88.0, 204.0, 89.0, 89.0, 90.0, 89.0, 89.0, 87.0, 90.0, 89.0, 89.0, 196.0, 89.0, 89.0, 88.0, 90.0, 89.0, 90.0, 88.0, 90.0, 88.0],
      "WindowWidth": [486.0, 487.0, 226.0, 233.0, 229.0, 231.0, 229.0, 228.0, 231.0, 224.0, 231.0, 483.0, 231.0, 228.0, 227.0, 230.0, 231.0, 226.0, 230.0, 233.0, 227.0, 231.0, 495.0, 229.0, 231.0, 228.0, 229.0, 231.0, 227.0, 231.0, 226.0, 228.0, 233.0, 476.0, 231.0, 229.0, 223.0, 231.0, 227.0, 231.0, 230.0, 229.0, 229.0, 231.0, 482.0, 227.0, 227.0, 233.0, 229.0, 229.0, 227.0, 229.0, 228.0, 229.0, 229.0, 491.0, 230.0, 225.0, 230.0, 227.0, 233.0, 229.0, 229.0, 227.0, 229.0, 229.0, 484.0, 228.0, 233.0, 229.0, 227.0, 228.0, 225.0, 231.0, 227.0, 231.0, 227.0, 475.0, 231.0, 229.0, 230.0, 227.0, 231.0, 228.0, 231.0, 230.0, 227.0, 486.0, 229.0, 230.0, 231.0, 230.0, 229.0, 225.0, 232.0, 229.0, 229.0, 472.0, 229.0, 229.0, 227.0, 231.0, 230.0, 231.0, 227.0, 231.0, 227.0]
    },
    "slices": {}
  }
}