{
  "AcquisitionMatrixPE": 96,
  "AcquisitionNumber": 1,
  "AcquisitionTime": "11:19:35.985000",
  "BandwidthPerPixelPhaseEncode": 18.939,
  "BaseResolution": 96,
  "BodyPartExamined": "BRAIN",
  "ConsistencyInfo": "N4_VE11C_LATEST_20160120",
  "ConversionSoftware": "dcm2niix",
  "ConversionSoftwareVersion": "v1.0.20171215 (OpenJPEG build) GCC6.3.0",
  "DerivedVendorReportedEchoSpacing": 0.000550011,
  "DeviceSerialNumber": "66112",
  "DwellTime": 2.2e-06,
  "EchoTime": 0.033,
  "EchoTrainLength": 96,
  "EffectiveEchoSpacing": 0.000550011,
  "FlipAngle": 59,
  "ImageOrientationPatientDICOM": [0.997541, 0.0419104, 0.0561695, -0.0367525, 0.995272, -0.0899078],
  "ImageType": [
    "ORIGINAL",
    "PRIMARY",
    "FMRI",
    "NONE",
    "ND",
    "NORM",
    "MOSAIC"
],
  "InPlanePhaseEncodingDirectionDICOM": "COL",
  "InstitutionAddress": "Maynard_3_Hanover_NH_US_03755",
  "InstitutionName": "Dartmouth_College_-_PBS",
  "InstitutionalDepartmentName": "Department",
  "MRAcquisitionType": "2D",
  "MagneticFieldStrength": 3,
  "Manufacturer": "Siemens",
  "ManufacturersModelName": "Prisma",
  "Modality": "MR",
  "MultibandAccelerationFactor": 4,
  "PartialFourier": 1,
  "PatientPosition": "HFS",
  "PercentPhaseFOV": 100,
  "PhaseEncodingDirection": "j-",
  "PhaseEncodingSteps": 96,
  "PhaseResolution": 1,
  "PixelBandwidth": 2365,
  "ProcedureStepDescription": "Gobbini_Matteo_1038_hyperface",
  "ProtocolName": "func_run-01_task-localizer",
  "PulseSequenceDetails": "%SiemensSeq%_ep2d_bold",
  "ReceiveCoilActiveElements": "HEA;HEP",
  "ReceiveCoilName": "Head_32",
  "ReconMatrixPE": 96,
  "RepetitionTime": 1,
  "SAR": 0.0504529,
  "ScanOptions": "FS",
  "ScanningSequence": "EP",
  "SequenceName": "_epfid2d1_96",
  "SequenceVariant": "SK",
  "SeriesDescription": "func_run-01_task-localizer",
  "SeriesNumber": 8,
  "ShimSetting": [4152, -7697, -7411, 701, 37, -170, -24, 30],
  "SliceThickness": 2.5,
  "SliceTiming": [0.735, 0, 0.49, 0.0825, 0.5725, 0.165, 0.655, 0.3275, 0.8175, 0.41, 0.9, 0.245, 0.735, 0, 0.49, 0.0825, 0.5725, 0.165, 0.655, 0.3275, 0.8175, 0.41, 0.9, 0.245, 0.735, 0, 0.49, 0.0825, 0.5725, 0.165, 0.655, 0.3275, 0.8175, 0.41, 0.9, 0.245, 0.735, 0, 0.49, 0.0825, 0.5725, 0.165, 0.655, 0.3275, 0.8175, 0.41, 0.9, 0.245],
  "SoftwareVersions": "syngo_MR_E11",
  "SpacingBetweenSlices": 2.5,
  "StationName": "AWP66112",
  "TotalReadoutTime": 0.0522511,
  "TxRefAmp": 244.569,
  "dcmmeta_affine": [
    [-2.4938530921936035, -0.09188132733106613, 0.1491800844669342, 123.87358093261719],
    [-0.10477601736783981, 2.4881794452667236, -0.2190558761358261, -102.03785705566406],
    [0.14042386412620544, 0.2247694581747055, 2.485912322998047, -117.39054107666016],
    [0.0, 0.0, 0.0, 1.0]
],
  "dcmmeta_reorient_transform": [
    [0.0, -1.0, 0.0, 95.0],
    [1.0, 0.0, 0.0, 0.0],
    [0.0, 0.0, 1.0, 0.0],
    [0.0, 0.0, 0.0, 1.0]
],
  "dcmmeta_shape": [96, 96, 48, 236],
  "dcmmeta_slice_dim": 2,
  "dcmmeta_version": 0.6,
  "global": {
    "const": {
      "AccessionNumber": "A001333",
      "AcquisitionMatrix": [96, 0, 0, 96],
      "AngioFlag": "N",
      "BitsAllocated": 16,
      "BitsStored": 12,
      "BodyPartExamined": "BRAIN",
      "Columns": 672,
      "EchoNumbers": 1,
      "EchoTime": 33.0,
      "EchoTrainLength": 96,
      "FlipAngle": 59.0,
      "HighBit": 11,
      "ImageOrientationPatient": [0.997541227356, 0.04191040590784, 0.05616954336401, -0.036752529813, 0.99527174297112, -0.0899077816186],
      "ImagePositionPatient": [-806.91271769053, -881.11032820896, -71.745908918886],
      "ImageType": [
        "ORIGINAL",
        "PRIMARY",
        "FMRI",
        "NONE",
        "ND",
        "NORM",
        "MOSAIC"
],
      "ImagedNucleus": "1H",
      "ImagingFrequency": 123.252317,
      "InPlanePhaseEncodingDirection": "COL",
      "MRAcquisitionType": "2D",
      "MagneticFieldStrength": 3.0,
      "Manufacturer": "SIEMENS",
      "ManufacturerModelName": "Prisma",
      "Modality": "MR",
      "NumberOfAverages": 1.0,
      "NumberOfPhaseEncodingSteps": 96,
      "PercentPhaseFieldOfView": 100.0,
      "PercentSampling": 100.0,
      "PerformedProcedureStepStartTime": "104616.171000",
      "PhotometricInterpretation": "MONOCHROME2",
      "PixelBandwidth": 2365.0,
      "PixelRepresentation": 0,
      "PixelSpacing": [2.5, 2.5],
      "PositionReferenceIndicator": "",
      "ProtocolName": "func_run-01_task-localizer",
      "RepetitionTime": 1000.0,
      "Rows": 672,
      "SAR": 0.05045291073694,
      "SamplesPerPixel": 1,
      "ScanOptions": "FS",
      "ScanningSequence": "EP",
      "SequenceName": "*epfid2d1_96",
      "SequenceVariant": "SK",
      "SeriesDescription": "func_run-01_task-localizer",
      "SeriesNumber": 8,
      "SeriesTime": "111937.036000",
      "SliceLocation": -100.39644761467,
      "SliceThickness": 2.5,
      "SmallestImagePixelValue": 0,
      "SoftwareVersions": "syngo MR E11",
      "SpacingBetweenSlices": 2.500000048751,
      "SpecificCharacterSet": "ISO_IR 100",
      "StudyID": "2",
      "StudyTime": "104616.033000",
      "TransmitCoilName": "Body",
      "VariableFlipAngleFlag": "N",
      "WindowCenterWidthExplanation": "Algo1",
      "dBdt": 0.0},
    "slices": {}
  },
  "time": {
    "samples": {
      "AcquisitionNumber": [1, 2, 3, 4, 5, 6, 7, 8, 9, 10, 11, 12, 13, 14, 15, 16, 17, 18, 19, 20, 21, 22, 23, 24, 25, 26, 27, 28, 29, 30, 31, 32, 33, 34, 35, 36, 37, 38, 39, 40, 41, 42, 43, 44, 45, 46, 47, 48, 49, 50, 51, 52, 53, 54, 55, 56, 57, 58, 59, 60, 61, 62, 63, 64, 65, 66, 67, 68, 69, 70, 71, 72, 73, 74, 75, 76, 77, 78, 79, 80, 81, 82, 83, 84, 85, 86, 87, 88, 89, 90, 91, 92, 93, 94, 95, 96, 97, 98, 99, 100, 101, 102, 103, 104, 105, 106, 107, 108, 109, 110, 111, 112, 113, 114, 115, 116, 117, 118, 119, 120, 121, 122, 123, 124, 125, 126, 127, 128, 129, 130, 131, 132, 133, 134, 135, 136, 137, 138, 139, 140, 141, 142, 143, 144, 145, 146, 147, 148, 149, 150, 151, 152, 153, 154, 155, 156, 157, 158, 159, 160, 161, 162, 163, 164, 165, 166, 167, 168, 169, 170, 171, 172, 173, 174, 175, 176, 177, 178, 179, 180, 181, 182, 183, 184, 185, 186, 187, 188, 189, 190, 191, 192, 193, 194, 195, 196, 197, 198, 199, 200, 201, 202, 203, 204, 205, 206, 207, 208, 209, 210, 211, 212, 213, 214, 215, 216, 217, 218, 219, 220, 221, 222, 223, 224, 225, 226, 227, 228, 229, 230, 231, 232, 233, 234, 235, 236],
      "AcquisitionTime": ["111935.985000", "111936.985000", "111937.985000", "111938.985000", "111939.985000", "111940.985000", "111941.985000", "111942.985000", "111943.985000", "111944.985000", "111945.985000", "111946.985000", "111947.985000", "111948.985000", "111949.985000", "111950.985000", "111951.985000", "111952.985000", "111953.985000", "111954.985000", "111955.985000", "111956.985000", "111957.985000", "111958.985000", "111959.985000", "112000.985000", "112001.985000", "112002.985000", "112003.985000", "112004.985000", "112005.985000", "112006.985000", "112007.985000", "112008.985000", "112009.985000", "112010.985000", "112011.985000", "112012.985000", "112013.985000", "112014.985000", "112015.985000", "112016.985000", "112017.985000", "112018.985000", "112019.985000", "112020.985000", "112021.985000", "112022.985000", "112023.985000", "112024.985000", "112025.985000", "112026.985000", "112027.985000", "112028.985000", "112029.985000", "112030.985000", "112031.985000", "112032.985000", "112033.985000", "112034.985000", "112035.985000", "112036.985000", "112037.985000", "112038.985000", "112039.985000", "112040.985000", "112041.985000", "112042.985000", "112043.985000", "112044.985000", "112045.985000", "112046.985000", "112047.985000", "112048.985000", "112049.985000", "112050.985000", "112051.985000", "112052.985000", "112053.985000", "112054.985000", "112055.985000", "112056.985000", "112057.985000", "112058.985000", "112059.985000", "112100.985000", "112101.985000", "112102.985000", "112103.985000", "112104.985000", "112105.985000", "112106.985000", "112107.985000", "112108.985000", "112109.985000", "112110.985000", "112111.985000", "112112.985000", "112113.985000", "112114.985000", "112115.985000", "112116.985000", "112117.985000", "112118.985000", "112119.985000", "112120.985000", "112121.985000", "112122.985000", "112123.985000", "112124.985000", "112125.985000", "112126.985000", "112127.985000", "112128.985000", "112129.985000", "112130.985000", "112131.985000", "112132.985000", "112133.985000", "112134.985000", "112135.985000", "112136.985000", "112137.985000", "112138.985000", "112139.985000", "112140.985000", "112141.985000", "112142.985000", "112143.985000", "112144.985000", "112145.985000", "112146.985000", "112147.985000", "112148.985000", "112149.985000", "112150.985000", "112151.985000", "112152.985000", "112153.985000", "112154.985000", "112155.985000", "112156.985000", "112157.985000", "112158.985000", "112159.985000", "112200.985000", "112201.985000", "112202.985000", "112203.985000", "112204.985000", "112205.985000", "112206.985000", "112207.985000", "112208.985000", "112209.985000", "112210.985000", "112211.985000", "112212.985000", "112213.985000", "112214.985000", "112215.985000", "112216.985000", "112217.985000", "112218.985000", "112219.985000", "112220.985000", "112221.985000", "112222.985000", "112223.985000", "112224.985000", "112225.985000", "112226.985000", "112227.985000", "112228.985000", "112229.985000", "112230.985000", "112231.985000", "112232.985000", "112233.985000", "112234.985000", "112235.985000", "112236.985000", "112237.985000", "112238.985000", "112239.985000", "112240.985000", "112241.985000", "112242.985000", "112243.985000", "112244.985000", "112245.985000", "112246.985000", "112247.985000", "112248.985000", "112249.985000", "112250.985000", "112251.985000", "112252.985000", "112253.985000", "112254.985000", "112255.985000", "112256.985000", "112257.985000", "112258.985000", "112259.985000", "112300.985000", "112301.985000", "112302.985000", "112303.985000", "112304.985000", "112305.985000", "112306.985000", "112307.985000", "112308.985000", "112309.985000", "112310.985000", "112311.985000", "112312.985000", "112313.985000", "112314.985000", "112315.985000", "112316.985000", "112317.985000", "112318.985000", "112319.985000", "112320.985000", "112321.985000", "112322.985000", "112323.985000", "112324.985000", "112325.985000", "112326.985000", "112327.985000", "112328.985000", "112329.985000", "112330.985000"],
      "ContentTime": ["111937.040000", "111937.848000", "111938.890000", "111939.876000", "111940.851000", "111941.828000", "111942.849000", "111943.861000", "111944.843000", "111945.832000", "111946.889000", "111947.823000", "111948.814000", "111949.852000", "111950.827000", "111951.779000", "111952.826000", "111953.823000", "111954.846000", "111955.868000", "111956.841000", "111957.858000", "111958.819000", "111959.892000", "112000.831000", "112001.847000", "112002.835000", "112003.838000", "112004.865000", "112005.805000", "112006.821000", "112007.829000", "112008.843000", "112009.822000", "112010.860000", "112011.823000", "112012.817000", "112013.809000", "112014.821000", "112015.817000", "112016.842000", "112017.829000", "112018.839000", "112019.823000", "112020.857000", "112021.820000", "112022.881000", "112023.838000", "112024.824000", "112025.876000", "112026.807000", "112027.810000", "112028.804000", "112029.866000", "112030.832000", "112031.820000", "112032.829000", "112033.825000", "112034.809000", "112035.829000", "112036.877000", "112037.812000", "112038.839000", "112039.855000", "112040.835000", "112041.831000", "112042.788000", "112043.782000", "112044.864000", "112045.898000", "112046.825000", "112047.833000", "112048.836000", "112049.827000", "112050.838000", "112051.862000", "112052.811000", "112053.833000", "112054.818000", "112055.834000", "112056.824000", "112057.866000", "112058.818000", "112059.817000", "112100.831000", "112101.842000", "112102.808000", "112103.861000", "112104.819000", "112105.809000", "112106.874000", "112107.825000", "112108.856000", "112109.792000", "112110.828000", "112111.845000", "112112.824000", "112113.800000", "112114.799000", "112115.870000", "112116.795000", "112117.814000", "112118.802000", "112119.816000", "112120.871000", "112121.837000", "112122.836000", "112123.819000", "112124.847000", "112125.868000", "112126.841000", "112127.812000", "112128.844000", "112129.821000", "112130.823000", "112131.880000", "112132.843000", "112133.888000", "112134.869000", "112135.818000", "112136.820000", "112137.857000", "112138.853000", "112139.813000", "112140.784000", "112141.866000", "112142.840000", "112143.847000", "112144.841000", "112145.836000", "112146.824000", "112147.808000", "112148.823000", "112149.848000", "112150.803000", "112151.834000", "112152.787000", "112153.845000", "112154.845000", "112155.825000", "112156.831000", "112157.858000", "112158.829000", "112159.799000", "112200.839000", "112201.889000", "112202.818000", "112203.818000", "112204.842000", "112205.835000", "112206.821000", "112207.843000", "112208.852000", "112209.818000", "112210.806000", "112211.826000", "112212.852000", "112213.831000", "112214.833000", "112215.839000", "112216.794000", "112217.823000", "112218.817000", "112219.845000", "112220.838000", "112221.838000", "112222.810000", "112223.824000", "112224.829000", "112225.833000", "112226.822000", "112227.848000", "112228.822000", "112229.849000", "112230.812000", "112231.816000", "112232.813000", "112233.803000", "112234.827000", "112235.804000", "112236.823000", "112237.836000", "112238.826000", "112239.825000", "112240.836000", "112241.832000", "112242.867000", "112243.829000", "112244.837000", "112245.836000", "112246.836000", "112247.838000", "112248.813000", "112249.835000", "112250.827000", "112251.825000", "112252.839000", "112253.835000", "112254.829000", "112255.825000", "112256.849000", "112257.808000", "112258.819000", "112259.853000", "112300.820000", "112301.806000", "112302.835000", "112303.827000", "112304.839000", "112305.821000", "112306.809000", "112307.826000", "112308.815000", "112309.854000", "112310.829000", "112311.849000", "112312.840000", "112313.873000", "112314.828000", "112315.835000", "112316.825000", "112317.821000", "112318.833000", "112319.825000", "112320.825000", "112321.838000", "112322.837000", "112323.809000", "112324.884000", "112325.860000", "112326.822000", "112327.899000", "112328.824000", "112329.823000", "112330.834000", "112331.838000"],
      "InstanceCreationTime": ["111937.040000", "111937.848000", "111938.890000", "111939.876000", "111940.851000", "111941.828000", "111942.849000", "111943.861000", "111944.843000", "111945.832000", "111946.889000", "111947.823000", "111948.814000", "111949.852000", "111950.827000", "111951.779000", "111952.826000", "111953.823000", "111954.846000", "111955.868000", "111956.841000", "111957.858000", "111958.819000", "111959.892000", "112000.831000", "112001.847000", "112002.835000", "112003.838000", "112004.865000", "112005.805000", "112006.821000", "112007.829000", "112008.843000", "112009.822000", "112010.860000", "112011.823000", "112012.817000", "112013.809000", "112014.821000", "112015.817000", "112016.842000", "112017.829000", "112018.839000", "112019.823000", "112020.857000", "112021.820000", "112022.881000", "112023.838000", "112024.824000", "112025.876000", "112026.807000", "112027.810000", "112028.804000", "112029.866000", "112030.832000", "112031.820000", "112032.829000", "112033.825000", "112034.809000", "112035.829000", "112036.877000", "112037.812000", "112038.839000", "112039.855000", "112040.835000", "112041.831000", "112042.788000", "112043.782000", "112044.864000", "112045.898000", "112046.825000", "112047.833000", "112048.836000", "112049.827000", "112050.838000", "112051.862000", "112052.811000", "112053.833000", "112054.818000", "112055.834000", "112056.824000", "112057.866000", "112058.818000", "112059.817000", "112100.831000", "112101.842000", "112102.808000", "112103.861000", "112104.819000", "112105.809000", "112106.874000", "112107.825000", "112108.856000", "112109.792000", "112110.828000", "112111.845000", "112112.824000", "112113.800000", "112114.799000", "112115.870000", "112116.795000", "112117.814000", "112118.802000", "112119.816000", "112120.871000", "112121.837000", "112122.836000", "112123.819000", "112124.847000", "112125.868000", "112126.841000", "112127.812000", "112128.844000", "112129.821000", "112130.823000", "112131.880000", "112132.843000", "112133.888000", "112134.869000", "112135.818000", "112136.820000", "112137.857000", "112138.853000", "112139.813000", "112140.784000", "112141.866000", "112142.840000", "112143.847000", "112144.841000", "112145.836000", "112146.824000", "112147.808000", "112148.823000", "112149.848000", "112150.803000", "112151.834000", "112152.787000", "112153.845000", "112154.845000", "112155.825000", "112156.831000", "112157.858000", "112158.829000", "112159.799000", "112200.839000", "112201.889000", "112202.818000", "112203.818000", "112204.842000", "112205.835000", "112206.821000", "112207.843000", "112208.852000", "112209.818000", "112210.806000", "112211.826000", "112212.852000", "112213.831000", "112214.833000", "112215.839000", "112216.794000", "112217.823000", "112218.817000", "112219.845000", "112220.838000", "112221.838000", "112222.810000", "112223.824000", "112224.829000", "112225.833000", "112226.822000", "112227.848000", "112228.822000", "112229.849000", "112230.812000", "112231.816000", "112232.813000", "112233.803000", "112234.827000", "112235.804000", "112236.823000", "112237.836000", "112238.826000", "112239.825000", "112240.836000", "112241.832000", "112242.867000", "112243.829000", "112244.837000", "112245.836000", "112246.836000", "112247.838000", "112248.813000", "112249.835000", "112250.827000", "112251.825000", "112252.839000", "112253.835000", "112254.829000", "112255.825000", "112256.849000", "112257.808000", "112258.819000", "112259.853000", "112300.820000", "112301.806000", "112302.835000", "112303.827000", "112304.839000", "112305.821000", "112306.809000", "112307.826000", "112308.815000", "112309.854000", "112310.829000", "112311.849000", "112312.840000", "112313.873000", "112314.828000", "112315.835000", "112316.825000", "112317.821000", "112318.833000", "112319.825000", "112320.825000", "112321.838000", "112322.837000", "112323.809000", "112324.884000", "112325.860000", "112326.822000", "112327.899000", "112328.824000", "112329.823000", "112330.834000", "112331.838000"],
      "InstanceNumber": [1, 2, 3, 4, 5, 6, 7, 8, 9, 10, 11, 12, 13, 14, 15, 16, 17, 18, 19, 20, 21, 22, 23, 24, 25, 26, 27, 28, 29, 30, 31, 32, 33, 34, 35, 36, 37, 38, 39, 40, 41, 42, 43, 44, 45, 46, 47, 48, 49, 50, 51, 52, 53, 54, 55, 56, 57, 58, 59, 60, 61, 62, 63, 64, 65, 66, 67, 68, 69, 70, 71, 72, 73, 74, 75, 76, 77, 78, 79, 80, 81, 82, 83, 84, 85, 86, 87, 88, 89, 90, 91, 92, 93, 94, 95, 96, 97, 98, 99, 100, 101, 102, 103, 104, 105, 106, 107, 108, 109, 110, 111, 112, 113, 114, 115, 116, 117, 118, 119, 120, 121, 122, 123, 124, 125, 126, 127, 128, 129, 130, 131, 132, 133, 134, 135, 136, 137, 138, 139, 140, 141, 142, 143, 144, 145, 146, 147, 148, 149, 150, 151, 152, 153, 154, 155, 156, 157, 158, 159, 160, 161, 162, 163, 164, 165, 166, 167, 168, 169, 170, 171, 172, 173, 174, 175, 176, 177, 178, 179, 180, 181, 182, 183, 184, 185, 186, 187, 188, 189, 190, 191, 192, 193, 194, 195, 196, 197, 198, 199, 200, 201, 202, 203, 204, 205, 206, 207, 208, 209, 210, 211, 212, 213, 214, 215, 216, 217, 218, 219, 220, 221, 222, 223, 224, 225, 226, 227, 228, 229, 230, 231, 232, 233, 234, 235, 236],
      "LargestImagePixelValue": [706, 678, 1126, 668, 832, 1006, 1057, 729, 692, 1115, 680, 668, 1017, 685, 670, 1047, 968, 679, 730, 906, 677, 680, 668, 971, 851, 683, 679, 670, 1082, 680, 684, 672, 988, 1070, 684, 668, 1179, 741, 683, 696, 1017, 780, 679, 671, 1201, 679, 666, 917, 671, 693, 741, 1063, 864, 673, 701, 1143, 676, 662, 927, 1021, 677, 677, 662, 953, 670, 672, 709, 811, 667, 656, 662, 676, 760, 1117, 770, 673, 1020, 719, 851, 861, 1151, 690, 667, 727, 1133, 816, 668, 669, 660, 666, 697, 1078, 669, 664, 1028, 994, 661, 673, 662, 981, 757, 669, 662, 1167, 832, 668, 917, 1011, 1075, 672, 670, 750, 819, 670, 736, 1000, 1156, 1016, 671, 669, 1077, 987, 673, 673, 667, 1041, 671, 661, 736, 1165, 669, 662, 929, 706, 682, 698, 1059, 1003, 682, 669, 1050, 675, 669, 721, 1152, 871, 696, 694, 754, 673, 671, 659, 1030, 669, 672, 741, 1151, 678, 671, 1107, 928, 678, 875, 1138, 676, 722, 804, 862, 682, 669, 1121, 977, 675, 683, 947, 775, 681, 675, 943, 679, 676, 726, 1176, 671, 677, 773, 916, 677, 685, 914, 674, 662, 823, 686, 673, 847, 1166, 677, 703, 967, 678, 673, 949, 673, 683, 705, 1111, 683, 669, 1166, 699, 665, 933, 678, 668, 947, 912, 677, 811, 1012, 677, 673, 965, 679, 685, 817, 684, 802, 1156, 1150, 686, 665, 1051, 679, 665, 834],
      "WindowCenter": [330.0, 329.0, 332.0, 328.0, 330.0, 331.0, 331.0, 328.0, 328.0, 331.0, 328.0, 328.0, 330.0, 328.0, 328.0, 330.0, 330.0, 328.0, 328.0, 329.0, 328.0, 328.0, 328.0, 330.0, 329.0, 328.0, 328.0, 328.0, 331.0, 328.0, 328.0, 328.0, 331.0, 331.0, 328.0, 328.0, 331.0, 328.0, 327.0, 327.0, 330.0, 329.0, 327.0, 328.0, 331.0, 328.0, 328.0, 330.0, 328.0, 328.0, 328.0, 331.0, 329.0, 327.0, 328.0, 331.0, 328.0, 328.0, 330.0, 330.0, 328.0, 328.0, 328.0, 331.0, 328.0, 328.0, 328.0, 329.0, 329.0, 329.0, 329.0, 330.0, 330.0, 333.0, 328.0, 328.0, 331.0, 329.0, 329.0, 329.0, 331.0, 328.0, 327.0, 328.0, 331.0, 329.0, 327.0, 327.0, 328.0, 328.0, 329.0, 332.0, 328.0, 328.0, 331.0, 331.0, 328.0, 328.0, 328.0, 331.0, 330.0, 328.0, 328.0, 333.0, 330.0, 328.0, 331.0, 331.0, 331.0, 328.0, 329.0, 330.0, 330.0, 329.0, 330.0, 331.0, 332.0, 331.0, 328.0, 328.0, 331.0, 331.0, 328.0, 328.0, 328.0, 331.0, 328.0, 328.0, 329.0, 332.0, 328.0, 328.0, 331.0, 329.0, 328.0, 329.0, 331.0, 331.0, 328.0, 328.0, 331.0, 328.0, 328.0, 329.0, 332.0, 330.0, 328.0, 328.0, 329.0, 328.0, 329.0, 329.0, 332.0, 328.0, 329.0, 330.0, 332.0, 328.0, 328.0, 332.0, 331.0, 328.0, 330.0, 331.0, 328.0, 328.0, 329.0, 329.0, 328.0, 328.0, 331.0, 330.0, 328.0, 327.0, 330.0, 329.0, 327.0, 328.0, 330.0, 328.0, 328.0, 329.0, 332.0, 328.0, 328.0, 329.0, 330.0, 328.0, 328.0, 330.0, 328.0, 328.0, 330.0, 329.0, 328.0, 330.0, 332.0, 328.0, 328.0, 331.0, 328.0, 328.0, 331.0, 328.0, 328.0, 328.0, 332.0, 328.0, 328.0, 332.0, 328.0, 328.0, 331.0, 328.0, 328.0, 331.0, 330.0, 328.0, 329.0, 331.0, 328.0, 328.0, 331.0, 328.0, 328.0, 330.0, 328.0, 329.0, 332.0, 331.0, 328.0, 327.0, 331.0, 328.0, 328.0, 330.0],
      "WindowWidth": [713.0, 712.0, 715.0, 710.0, 712.0, 713.0, 714.0, 709.0, 709.0, 713.0, 708.0, 709.0, 713.0, 709.0, 709.0, 712.0, 711.0, 709.0, 709.0, 711.0, 709.0, 710.0, 709.0, 712.0, 711.0, 709.0, 710.0, 710.0, 713.0, 710.0, 709.0, 710.0, 713.0, 714.0, 709.0, 709.0, 713.0, 709.0, 708.0, 708.0, 712.0, 710.0, 708.0, 708.0, 713.0, 709.0, 709.0, 712.0, 710.0, 710.0, 710.0, 713.0, 711.0, 708.0, 709.0, 714.0, 709.0, 709.0, 712.0, 712.0, 709.0, 709.0, 709.0, 713.0, 710.0, 710.0, 710.0, 711.0, 711.0, 711.0, 711.0, 712.0, 713.0, 716.0, 708.0, 710.0, 713.0, 710.0, 711.0, 711.0, 713.0, 709.0, 708.0, 709.0, 713.0, 710.0, 708.0, 708.0, 709.0, 710.0, 710.0, 715.0, 710.0, 710.0, 714.0, 714.0, 710.0, 710.0, 710.0, 714.0, 712.0, 710.0, 710.0, 716.0, 713.0, 710.0, 713.0, 714.0, 714.0, 710.0, 711.0, 712.0, 712.0, 711.0, 712.0, 714.0, 715.0, 713.0, 710.0, 710.0, 714.0, 713.0, 710.0, 710.0, 709.0, 714.0, 709.0, 709.0, 710.0, 714.0, 710.0, 710.0, 713.0, 711.0, 710.0, 711.0, 713.0, 713.0, 710.0, 710.0, 714.0, 710.0, 710.0, 710.0, 715.0, 712.0, 710.0, 709.0, 710.0, 710.0, 711.0, 711.0, 715.0, 710.0, 711.0, 712.0, 715.0, 710.0, 710.0, 715.0, 713.0, 710.0, 712.0, 713.0, 709.0, 710.0, 710.0, 711.0, 709.0, 710.0, 713.0, 712.0, 709.0, 708.0, 712.0, 710.0, 708.0, 709.0, 711.0, 709.0, 709.0, 710.0, 714.0, 709.0, 709.0, 710.0, 712.0, 709.0, 710.0, 711.0, 710.0, 710.0, 711.0, 710.0, 710.0, 712.0, 715.0, 710.0, 710.0, 713.0, 710.0, 710.0, 713.0, 710.0, 710.0, 710.0, 715.0, 710.0, 710.0, 714.0, 710.0, 708.0, 713.0, 710.0, 710.0, 713.0, 712.0, 710.0, 711.0, 714.0, 709.0, 710.0, 713.0, 710.0, 710.0, 712.0, 710.0, 711.0, 715.0, 714.0, 708.0, 708.0, 712.0, 708.0, 708.0, 711.0]
    },
    "slices": {}
  }
}