{
  "AcquisitionMatrixPE": 96,
  "AcquisitionNumber": 1,
  "AcquisitionTime": "11:29:50.472500",
  "BandwidthPerPixelPhaseEncode": 18.939,
  "BaseResolution": 96,
  "BodyPartExamined": "BRAIN",
  "ConsistencyInfo": "N4_VE11C_LATEST_20160120",
  "ConversionSoftware": "dcm2niix",
  "ConversionSoftwareVersion": "v1.0.20171215 (OpenJPEG build) GCC6.3.0",
  "DerivedVendorReportedEchoSpacing": 0.000550011,
  "DeviceSerialNumber": "66112",
  "DwellTime": 2.2e-06,
  "EchoTime": 0.033,
  "EchoTrainLength": 96,
  "EffectiveEchoSpacing": 0.000550011,
  "FlipAngle": 59,
  "ImageOrientationPatientDICOM": [
    0.997541,
    0.0419104,
    0.0561695,
    -0.0367525,
    0.995272,
    -0.0899078
  ],
  "ImageType": [
    "ORIGINAL",
    "PRIMARY",
    "FMRI",
    "NONE",
    "ND",
    "NORM",
    "MOSAIC"
  ],
  "InPlanePhaseEncodingDirectionDICOM": "COL",
  "InstitutionAddress": "Maynard_3_Hanover_NH_US_03755",
  "InstitutionName": "Dartmouth_College_-_PBS",
  "InstitutionalDepartmentName": "Department",
  "MRAcquisitionType": "2D",
  "MagneticFieldStrength": 3,
  "Manufacturer": "Siemens",
  "ManufacturersModelName": "Prisma",
  "Modality": "MR",
  "MultibandAccelerationFactor": 4,
  "PatientPosition": "HFS",
  "PercentPhaseFOV": 100,
  "PhaseEncodingDirection": "j-",
  "PhaseEncodingSteps": 96,
  "PhaseResolution": 1,
  "PixelBandwidth": 2365,
  "ProcedureStepDescription": "Gobbini_Matteo_1038_hyperface",
  "ProtocolName": "func_run-03_task-visualmemory",
  "PulseSequenceDetails": "%SiemensSeq%_ep2d_bold",
  "ReceiveCoilActiveElements": "HEA;HEP",
  "ReceiveCoilName": "Head_32",
  "ReconMatrixPE": 96,
  "RepetitionTime": 1,
  "SAR": 0.0505738,
  "ScanOptions": "FS",
  "ScanningSequence": "EP",
  "SequenceName": "_epfid2d1_96",
  "SequenceVariant": "SK",
  "SeriesDescription": "func_run-03_task-visualmemory",
  "SeriesNumber": 22,
  "ShimSetting": [
    4152,
    -7697,
    -7411,
    701,
    37,
    -170,
    -24,
    30
  ],
  "SliceThickness": 2.5,
  "SliceTiming": [
    0.735,
    0,
    0.49,
    0.0825,
    0.5725,
    0.1625,
    0.6525,
    0.3275,
    0.8175,
    0.4075,
    0.8975,
    0.245,
    0.735,
    0,
    0.49,
    0.0825,
    0.5725,
    0.1625,
    0.6525,
    0.3275,
    0.8175,
    0.4075,
    0.8975,
    0.245,
    0.735,
    0,
    0.49,
    0.0825,
    0.5725,
    0.1625,
    0.6525,
    0.3275,
    0.8175,
    0.4075,
    0.8975,
    0.245,
    0.735,
    0,
    0.49,
    0.0825,
    0.5725,
    0.1625,
    0.6525,
    0.3275,
    0.8175,
    0.4075,
    0.8975,
    0.245
  ],
  "SoftwareVersions": "syngo_MR_E11",
  "SpacingBetweenSlices": 2.5,
  "StationName": "AWP66112",
  "TotalReadoutTime": 0.0522511,
  "TxRefAmp": 244.569,
  "dcmmeta_affine": [
    [
      -2.4938530921936035,
      -0.09188132733106613,
      0.1491800844669342,
      123.87358093261719
    ],
    [
      -0.10477601736783981,
      2.4881794452667236,
      -0.2190558761358261,
      -102.03785705566406
    ],
    [
      0.14042386412620544,
      0.2247694581747055,
      2.485912322998047,
      -117.39054107666016
    ],
    [
      0.0,
      0.0,
      0.0,
      1.0
    ]
  ],
  "dcmmeta_reorient_transform": [
    [
      0.0,
      -1.0,
      0.0,
      95.0
    ],
    [
      1.0,
      0.0,
      0.0,
      0.0
    ],
    [
      0.0,
      0.0,
      1.0,
      0.0
    ],
    [
      0.0,
      0.0,
      0.0,
      1.0
    ]
  ],
  "dcmmeta_shape": [
    96,
    96,
    48,
    288
  ],
  "dcmmeta_slice_dim": 2,
  "dcmmeta_version": 0.6,
  "global": {
    "const": {
      "AccessionNumber": "A001333",
      "AcquisitionMatrix": [
        96,
        0,
        0,
        96
      ],
      "AngioFlag": "N",
      "BitsAllocated": 16,
      "BitsStored": 12,
      "BodyPartExamined": "BRAIN",
      "Columns": 672,
      "EchoNumbers": 1,
      "EchoTime": 33.0,
      "EchoTrainLength": 96,
      "FlipAngle": 59.0,
      "HighBit": 11,
      "ImageOrientationPatient": [
        0.997541227356,
        0.04191040590784,
        0.05616954336401,
        -0.036752529813,
        0.99527174297112,
        -0.0899077816186
      ],
      "ImagePositionPatient": [
        -806.91271769053,
        -881.11032820896,
        -71.745908918886
      ],
      "ImageType": [
        "ORIGINAL",
        "PRIMARY",
        "FMRI",
        "NONE",
        "ND",
        "NORM",
        "MOSAIC"
      ],
      "ImagedNucleus": "1H",
      "ImagingFrequency": 123.252323,
      "InPlanePhaseEncodingDirection": "COL",
      "MRAcquisitionType": "2D",
      "MagneticFieldStrength": 3.0,
      "Manufacturer": "SIEMENS",
      "ManufacturerModelName": "Prisma",
      "Modality": "MR",
      "NumberOfAverages": 1.0,
      "NumberOfPhaseEncodingSteps": 96,
      "PercentPhaseFieldOfView": 100.0,
      "PercentSampling": 100.0,
      "PerformedProcedureStepStartTime": "104616.171000",
      "PhotometricInterpretation": "MONOCHROME2",
      "PixelBandwidth": 2365.0,
      "PixelRepresentation": 0,
      "PixelSpacing": [
        2.5,
        2.5
      ],
      "PositionReferenceIndicator": "",
      "ProtocolName": "func_run-03_task-visualmemory",
      "RepetitionTime": 1000.0,
      "Rows": 672,
      "SAR": 0.05057384114452,
      "SamplesPerPixel": 1,
      "ScanOptions": "FS",
      "ScanningSequence": "EP",
      "SequenceName": "*epfid2d1_96",
      "SequenceVariant": "SK",
      "SeriesDescription": "func_run-03_task-visualmemory",
      "SeriesNumber": 22,
      "SeriesTime": "112951.643000",
      "SliceLocation": -100.39644761467,
      "SliceThickness": 2.5,
      "SmallestImagePixelValue": 0,
      "SoftwareVersions": "syngo MR E11",
      "SpacingBetweenSlices": 2.500000048751,
      "SpecificCharacterSet": "ISO_IR 100",
      "StudyID": "2",
      "StudyTime": "104616.033000",
      "TransmitCoilName": "Body",
      "VariableFlipAngleFlag": "N",
      "WindowCenterWidthExplanation": "Algo1",
      "dBdt": 0.0
    },
    "slices": {}
  },
  "time": {
    "samples": {
      "AcquisitionNumber": [
        1,
        2,
        3,
        4,
        5,
        6,
        7,
        8,
        9,
        10,
        11,
        12,
        13,
        14,
        15,
        16,
        17,
        18,
        19,
        20,
        21,
        22,
        23,
        24,
        25,
        26,
        27,
        28,
        29,
        30,
        31,
        32,
        33,
        34,
        35,
        36,
        37,
        38,
        39,
        40,
        41,
        42,
        43,
        44,
        45,
        46,
        47,
        48,
        49,
        50,
        51,
        52,
        53,
        54,
        55,
        56,
        57,
        58,
        59,
        60,
        61,
        62,
        63,
        64,
        65,
        66,
        67,
        68,
        69,
        70,
        71,
        72,
        73,
        74,
        75,
        76,
        77,
        78,
        79,
        80,
        81,
        82,
        83,
        84,
        85,
        86,
        87,
        88,
        89,
        90,
        91,
        92,
        93,
        94,
        95,
        96,
        97,
        98,
        99,
        100,
        101,
        102,
        103,
        104,
        105,
        106,
        107,
        108,
        109,
        110,
        111,
        112,
        113,
        114,
        115,
        116,
        117,
        118,
        119,
        120,
        121,
        122,
        123,
        124,
        125,
        126,
        127,
        128,
        129,
        130,
        131,
        132,
        133,
        134,
        135,
        136,
        137,
        138,
        139,
        140,
        141,
        142,
        143,
        144,
        145,
        146,
        147,
        148,
        149,
        150,
        151,
        152,
        153,
        154,
        155,
        156,
        157,
        158,
        159,
        160,
        161,
        162,
        163,
        164,
        165,
        166,
        167,
        168,
        169,
        170,
        171,
        172,
        173,
        174,
        175,
        176,
        177,
        178,
        179,
        180,
        181,
        182,
        183,
        184,
        185,
        186,
        187,
        188,
        189,
        190,
        191,
        192,
        193,
        194,
        195,
        196,
        197,
        198,
        199,
        200,
        201,
        202,
        203,
        204,
        205,
        206,
        207,
        208,
        209,
        210,
        211,
        212,
        213,
        214,
        215,
        216,
        217,
        218,
        219,
        220,
        221,
        222,
        223,
        224,
        225,
        226,
        227,
        228,
        229,
        230,
        231,
        232,
        233,
        234,
        235,
        236,
        237,
        238,
        239,
        240,
        241,
        242,
        243,
        244,
        245,
        246,
        247,
        248,
        249,
        250,
        251,
        252,
        253,
        254,
        255,
        256,
        257,
        258,
        259,
        260,
        261,
        262,
        263,
        264,
        265,
        266,
        267,
        268,
        269,
        270,
        271,
        272,
        273,
        274,
        275,
        276,
        277,
        278,
        279,
        280,
        281,
        282,
        283,
        284,
        285,
        286,
        287,
        288
      ],
      "AcquisitionTime": [
        "112950.472500",
        "112951.472500",
        "112952.472500",
        "112953.472500",
        "112954.472500",
        "112955.472500",
        "112956.472500",
        "112957.472500",
        "112958.472500",
        "112959.472500",
        "113000.472500",
        "113001.472500",
        "113002.472500",
        "113003.472500",
        "113004.472500",
        "113005.472500",
        "113006.472500",
        "113007.472500",
        "113008.472500",
        "113009.472500",
        "113010.472500",
        "113011.472500",
        "113012.472500",
        "113013.472500",
        "113014.472500",
        "113015.472500",
        "113016.472500",
        "113017.472500",
        "113018.472500",
        "113019.472500",
        "113020.472500",
        "113021.472500",
        "113022.472500",
        "113023.472500",
        "113024.472500",
        "113025.472500",
        "113026.472500",
        "113027.472500",
        "113028.472500",
        "113029.472500",
        "113030.472500",
        "113031.472500",
        "113032.472500",
        "113033.472500",
        "113034.472500",
        "113035.472500",
        "113036.472500",
        "113037.472500",
        "113038.472500",
        "113039.472500",
        "113040.472500",
        "113041.472500",
        "113042.472500",
        "113043.472500",
        "113044.472500",
        "113045.472500",
        "113046.472500",
        "113047.472500",
        "113048.472500",
        "113049.472500",
        "113050.472500",
        "113051.472500",
        "113052.472500",
        "113053.472500",
        "113054.472500",
        "113055.472500",
        "113056.472500",
        "113057.472500",
        "113058.472500",
        "113059.472500",
        "113100.472500",
        "113101.472500",
        "113102.472500",
        "113103.472500",
        "113104.472500",
        "113105.472500",
        "113106.472500",
        "113107.472500",
        "113108.472500",
        "113109.472500",
        "113110.472500",
        "113111.472500",
        "113112.472500",
        "113113.472500",
        "113114.472500",
        "113115.472500",
        "113116.472500",
        "113117.472500",
        "113118.472500",
        "113119.472500",
        "113120.472500",
        "113121.472500",
        "113122.472500",
        "113123.472500",
        "113124.472500",
        "113125.472500",
        "113126.472500",
        "113127.472500",
        "113128.472500",
        "113129.472500",
        "113130.472500",
        "113131.472500",
        "113132.472500",
        "113133.472500",
        "113134.472500",
        "113135.472500",
        "113136.472500",
        "113137.472500",
        "113138.472500",
        "113139.472500",
        "113140.472500",
        "113141.472500",
        "113142.472500",
        "113143.472500",
        "113144.472500",
        "113145.472500",
        "113146.472500",
        "113147.472500",
        "113148.472500",
        "113149.472500",
        "113150.472500",
        "113151.472500",
        "113152.472500",
        "113153.472500",
        "113154.472500",
        "113155.472500",
        "113156.472500",
        "113157.472500",
        "113158.472500",
        "113159.472500",
        "113200.472500",
        "113201.472500",
        "113202.472500",
        "113203.472500",
        "113204.472500",
        "113205.472500",
        "113206.472500",
        "113207.472500",
        "113208.472500",
        "113209.472500",
        "113210.472500",
        "113211.472500",
        "113212.472500",
        "113213.472500",
        "113214.472500",
        "113215.472500",
        "113216.472500",
        "113217.472500",
        "113218.472500",
        "113219.472500",
        "113220.472500",
        "113221.472500",
        "113222.472500",
        "113223.472500",
        "113224.472500",
        "113225.472500",
        "113226.472500",
        "113227.472500",
        "113228.472500",
        "113229.472500",
        "113230.472500",
        "113231.472500",
        "113232.472500",
        "113233.472500",
        "113234.472500",
        "113235.472500",
        "113236.472500",
        "113237.472500",
        "113238.472500",
        "113239.472500",
        "113240.472500",
        "113241.472500",
        "113242.472500",
        "113243.472500",
        "113244.472500",
        "113245.472500",
        "113246.472500",
        "113247.472500",
        "113248.472500",
        "113249.472500",
        "113250.472500",
        "113251.472500",
        "113252.472500",
        "113253.472500",
        "113254.472500",
        "113255.472500",
        "113256.472500",
        "113257.472500",
        "113258.472500",
        "113259.472500",
        "113300.472500",
        "113301.472500",
        "113302.472500",
        "113303.472500",
        "113304.472500",
        "113305.472500",
        "113306.472500",
        "113307.472500",
        "113308.472500",
        "113309.472500",
        "113310.472500",
        "113311.472500",
        "113312.472500",
        "113313.472500",
        "113314.472500",
        "113315.472500",
        "113316.472500",
        "113317.472500",
        "113318.472500",
        "113319.472500",
        "113320.472500",
        "113321.472500",
        "113322.472500",
        "113323.472500",
        "113324.472500",
        "113325.472500",
        "113326.472500",
        "113327.472500",
        "113328.472500",
        "113329.472500",
        "113330.472500",
        "113331.472500",
        "113332.472500",
        "113333.472500",
        "113334.472500",
        "113335.472500",
        "113336.472500",
        "113337.472500",
        "113338.472500",
        "113339.472500",
        "113340.472500",
        "113341.472500",
        "113342.472500",
        "113343.472500",
        "113344.472500",
        "113345.472500",
        "113346.472500",
        "113347.472500",
        "113348.472500",
        "113349.472500",
        "113350.472500",
        "113351.472500",
        "113352.472500",
        "113353.472500",
        "113354.472500",
        "113355.472500",
        "113356.472500",
        "113357.472500",
        "113358.472500",
        "113359.472500",
        "113400.472500",
        "113401.472500",
        "113402.472500",
        "113403.472500",
        "113404.472500",
        "113405.472500",
        "113406.472500",
        "113407.472500",
        "113408.472500",
        "113409.472500",
        "113410.472500",
        "113411.472500",
        "113412.472500",
        "113413.472500",
        "113414.472500",
        "113415.472500",
        "113416.472500",
        "113417.472500",
        "113418.472500",
        "113419.472500",
        "113420.472500",
        "113421.472500",
        "113422.472500",
        "113423.472500",
        "113424.472500",
        "113425.472500",
        "113426.472500",
        "113427.472500",
        "113428.472500",
        "113429.472500",
        "113430.472500",
        "113431.472500",
        "113432.472500",
        "113433.472500",
        "113434.472500",
        "113435.472500",
        "113436.472500",
        "113437.472500"
      ],
      "ContentTime": [
        "112951.647000",
        "112952.364000",
        "112953.394000",
        "112954.407000",
        "112955.402000",
        "112956.373000",
        "112957.358000",
        "112958.353000",
        "112959.368000",
        "113000.360000",
        "113001.358000",
        "113002.388000",
        "113003.382000",
        "113004.373000",
        "113005.381000",
        "113006.414000",
        "113007.386000",
        "113008.388000",
        "113009.378000",
        "113010.420000",
        "113011.354000",
        "113012.375000",
        "113013.415000",
        "113014.393000",
        "113015.375000",
        "113016.377000",
        "113017.383000",
        "113018.373000",
        "113019.379000",
        "113020.381000",
        "113021.378000",
        "113022.398000",
        "113023.377000",
        "113024.391000",
        "113025.395000",
        "113026.385000",
        "113027.378000",
        "113028.374000",
        "113029.405000",
        "113030.465000",
        "113031.444000",
        "113032.388000",
        "113033.369000",
        "113034.362000",
        "113035.396000",
        "113036.363000",
        "113037.391000",
        "113038.386000",
        "113039.377000",
        "113040.412000",
        "113041.398000",
        "113042.405000",
        "113043.359000",
        "113044.350000",
        "113045.377000",
        "113046.373000",
        "113047.413000",
        "113048.363000",
        "113049.388000",
        "113050.387000",
        "113051.391000",
        "113052.398000",
        "113053.374000",
        "113054.415000",
        "113055.373000",
        "113056.356000",
        "113057.384000",
        "113058.392000",
        "113059.384000",
        "113100.367000",
        "113101.376000",
        "113102.375000",
        "113103.390000",
        "113104.358000",
        "113105.377000",
        "113106.374000",
        "113107.377000",
        "113108.374000",
        "113109.379000",
        "113110.396000",
        "113111.379000",
        "113112.353000",
        "113113.353000",
        "113114.376000",
        "113115.369000",
        "113116.379000",
        "113117.384000",
        "113118.436000",
        "113119.371000",
        "113120.382000",
        "113121.429000",
        "113122.378000",
        "113123.372000",
        "113124.409000",
        "113125.447000",
        "113126.363000",
        "113127.349000",
        "113128.407000",
        "113129.414000",
        "113130.379000",
        "113131.350000",
        "113132.396000",
        "113133.396000",
        "113134.405000",
        "113135.376000",
        "113136.387000",
        "113137.457000",
        "113138.417000",
        "113139.375000",
        "113140.397000",
        "113141.433000",
        "113142.374000",
        "113143.385000",
        "113144.386000",
        "113145.381000",
        "113146.405000",
        "113147.382000",
        "113148.385000",
        "113149.374000",
        "113150.391000",
        "113151.397000",
        "113152.401000",
        "113153.401000",
        "113154.442000",
        "113155.374000",
        "113156.386000",
        "113157.399000",
        "113158.369000",
        "113159.370000",
        "113200.392000",
        "113201.351000",
        "113202.407000",
        "113203.363000",
        "113204.364000",
        "113205.401000",
        "113206.395000",
        "113207.405000",
        "113208.389000",
        "113209.372000",
        "113210.399000",
        "113211.395000",
        "113212.405000",
        "113213.396000",
        "113214.384000",
        "113215.390000",
        "113216.389000",
        "113217.375000",
        "113218.389000",
        "113219.385000",
        "113220.384000",
        "113221.416000",
        "113222.375000",
        "113223.412000",
        "113224.395000",
        "113225.362000",
        "113226.418000",
        "113227.382000",
        "113228.388000",
        "113229.421000",
        "113230.374000",
        "113231.383000",
        "113232.380000",
        "113233.370000",
        "113234.383000",
        "113235.376000",
        "113236.388000",
        "113237.397000",
        "113238.383000",
        "113239.383000",
        "113240.374000",
        "113241.372000",
        "113242.384000",
        "113243.372000",
        "113244.374000",
        "113245.400000",
        "113246.342000",
        "113247.364000",
        "113248.368000",
        "113249.378000",
        "113250.392000",
        "113251.457000",
        "113252.395000",
        "113253.380000",
        "113254.403000",
        "113255.395000",
        "113256.377000",
        "113257.383000",
        "113258.375000",
        "113259.394000",
        "113300.418000",
        "113301.374000",
        "113302.400000",
        "113303.360000",
        "113304.347000",
        "113305.365000",
        "113306.397000",
        "113307.363000",
        "113308.379000",
        "113309.390000",
        "113310.403000",
        "113311.368000",
        "113312.400000",
        "113313.394000",
        "113314.378000",
        "113315.382000",
        "113316.372000",
        "113317.390000",
        "113318.391000",
        "113319.390000",
        "113320.398000",
        "113321.434000",
        "113322.367000",
        "113323.369000",
        "113324.363000",
        "113325.398000",
        "113326.386000",
        "113327.391000",
        "113328.396000",
        "113329.378000",
        "113330.392000",
        "113331.364000",
        "113332.416000",
        "113333.387000",
        "113334.375000",
        "113335.385000",
        "113336.364000",
        "113337.398000",
        "113338.375000",
        "113339.391000",
        "113340.392000",
        "113341.380000",
        "113342.413000",
        "113343.370000",
        "113344.380000",
        "113345.397000",
        "113346.378000",
        "113347.366000",
        "113348.381000",
        "113349.386000",
        "113350.395000",
        "113351.365000",
        "113352.382000",
        "113353.384000",
        "113354.381000",
        "113355.381000",
        "113356.389000",
        "113357.385000",
        "113358.368000",
        "113359.406000",
        "113400.400000",
        "113401.398000",
        "113402.427000",
        "113403.367000",
        "113404.400000",
        "113405.407000",
        "113406.360000",
        "113407.454000",
        "113408.377000",
        "113409.375000",
        "113410.371000",
        "113411.430000",
        "113412.374000",
        "113413.376000",
        "113414.398000",
        "113415.412000",
        "113416.386000",
        "113417.381000",
        "113418.389000",
        "113419.438000",
        "113420.378000",
        "113421.371000",
        "113422.381000",
        "113423.387000",
        "113424.401000",
        "113425.392000",
        "113426.378000",
        "113427.345000",
        "113428.366000",
        "113429.414000",
        "113430.403000",
        "113431.391000",
        "113432.339000",
        "113433.391000",
        "113434.394000",
        "113435.384000",
        "113436.404000",
        "113437.392000",
        "113438.415000"
      ],
      "InstanceCreationTime": [
        "112951.647000",
        "112952.364000",
        "112953.394000",
        "112954.407000",
        "112955.402000",
        "112956.373000",
        "112957.358000",
        "112958.353000",
        "112959.368000",
        "113000.360000",
        "113001.358000",
        "113002.388000",
        "113003.382000",
        "113004.373000",
        "113005.381000",
        "113006.414000",
        "113007.386000",
        "113008.388000",
        "113009.378000",
        "113010.420000",
        "113011.354000",
        "113012.375000",
        "113013.415000",
        "113014.393000",
        "113015.375000",
        "113016.377000",
        "113017.383000",
        "113018.373000",
        "113019.379000",
        "113020.381000",
        "113021.378000",
        "113022.398000",
        "113023.377000",
        "113024.391000",
        "113025.395000",
        "113026.385000",
        "113027.378000",
        "113028.374000",
        "113029.405000",
        "113030.465000",
        "113031.444000",
        "113032.388000",
        "113033.369000",
        "113034.362000",
        "113035.396000",
        "113036.363000",
        "113037.391000",
        "113038.386000",
        "113039.377000",
        "113040.412000",
        "113041.398000",
        "113042.405000",
        "113043.359000",
        "113044.350000",
        "113045.377000",
        "113046.373000",
        "113047.413000",
        "113048.363000",
        "113049.388000",
        "113050.387000",
        "113051.391000",
        "113052.398000",
        "113053.374000",
        "113054.415000",
        "113055.373000",
        "113056.356000",
        "113057.384000",
        "113058.392000",
        "113059.384000",
        "113100.367000",
        "113101.376000",
        "113102.375000",
        "113103.390000",
        "113104.358000",
        "113105.377000",
        "113106.374000",
        "113107.377000",
        "113108.374000",
        "113109.379000",
        "113110.396000",
        "113111.379000",
        "113112.353000",
        "113113.353000",
        "113114.376000",
        "113115.369000",
        "113116.379000",
        "113117.384000",
        "113118.436000",
        "113119.371000",
        "113120.382000",
        "113121.429000",
        "113122.378000",
        "113123.372000",
        "113124.409000",
        "113125.447000",
        "113126.363000",
        "113127.349000",
        "113128.407000",
        "113129.414000",
        "113130.379000",
        "113131.350000",
        "113132.396000",
        "113133.396000",
        "113134.405000",
        "113135.376000",
        "113136.387000",
        "113137.457000",
        "113138.417000",
        "113139.375000",
        "113140.397000",
        "113141.433000",
        "113142.374000",
        "113143.385000",
        "113144.386000",
        "113145.381000",
        "113146.405000",
        "113147.382000",
        "113148.385000",
        "113149.374000",
        "113150.391000",
        "113151.397000",
        "113152.401000",
        "113153.401000",
        "113154.442000",
        "113155.374000",
        "113156.386000",
        "113157.399000",
        "113158.369000",
        "113159.370000",
        "113200.392000",
        "113201.351000",
        "113202.407000",
        "113203.363000",
        "113204.364000",
        "113205.401000",
        "113206.395000",
        "113207.405000",
        "113208.389000",
        "113209.372000",
        "113210.399000",
        "113211.395000",
        "113212.405000",
        "113213.396000",
        "113214.384000",
        "113215.390000",
        "113216.389000",
        "113217.375000",
        "113218.389000",
        "113219.385000",
        "113220.384000",
        "113221.416000",
        "113222.375000",
        "113223.412000",
        "113224.395000",
        "113225.362000",
        "113226.418000",
        "113227.382000",
        "113228.388000",
        "113229.421000",
        "113230.374000",
        "113231.383000",
        "113232.380000",
        "113233.370000",
        "113234.383000",
        "113235.376000",
        "113236.388000",
        "113237.397000",
        "113238.383000",
        "113239.383000",
        "113240.374000",
        "113241.372000",
        "113242.384000",
        "113243.372000",
        "113244.374000",
        "113245.400000",
        "113246.342000",
        "113247.364000",
        "113248.368000",
        "113249.378000",
        "113250.392000",
        "113251.457000",
        "113252.395000",
        "113253.380000",
        "113254.403000",
        "113255.395000",
        "113256.377000",
        "113257.383000",
        "113258.375000",
        "113259.394000",
        "113300.418000",
        "113301.374000",
        "113302.400000",
        "113303.360000",
        "113304.347000",
        "113305.365000",
        "113306.397000",
        "113307.363000",
        "113308.379000",
        "113309.390000",
        "113310.403000",
        "113311.368000",
        "113312.400000",
        "113313.394000",
        "113314.378000",
        "113315.382000",
        "113316.372000",
        "113317.390000",
        "113318.391000",
        "113319.390000",
        "113320.398000",
        "113321.434000",
        "113322.367000",
        "113323.369000",
        "113324.363000",
        "113325.398000",
        "113326.386000",
        "113327.391000",
        "113328.396000",
        "113329.378000",
        "113330.392000",
        "113331.364000",
        "113332.416000",
        "113333.387000",
        "113334.375000",
        "113335.385000",
        "113336.364000",
        "113337.398000",
        "113338.375000",
        "113339.391000",
        "113340.392000",
        "113341.380000",
        "113342.413000",
        "113343.370000",
        "113344.380000",
