{
  "AcquisitionMatrixPE": 96,
  "AcquisitionNumber": 1,
  "AcquisitionTime": "19:15:37.250000",
  "BandwidthPerPixelPhaseEncode": 18.939,
  "BaseResolution": 96,
  "BodyPartExamined": "BRAIN",
  "ConsistencyInfo": "N4_VE11C_LATEST_20160120",
  "ConversionSoftware": "dcm2niix",
  "ConversionSoftwareVersion": "v1.0.20170923 (OpenJPEG build) GCC6.3.0",
  "DerivedVendorReportedEchoSpacing": 0.000550011,
  "DeviceSerialNumber": "66112",
  "DwellTime": 2.2e-06,
  "EchoTime": 0.033,
  "EchoTrainLength": 96,
  "EffectiveEchoSpacing": 0.000550011,
  "FlipAngle": 59,
  "ImageType": [
    "ORIGINAL",
    "PRIMARY",
    "FMRI",
    "NONE",
    "ND",
    "NORM",
    "MOSAIC"
],
  "InstitutionAddress": "Maynard_3_Hanover_NH_US_03755",
  "InstitutionName": "Dartmouth_College_-_PBS",
  "MagneticFieldStrength": 3,
  "Manufacturer": "Siemens",
  "ManufacturersModelName": "Prisma",
  "Modality": "MR",
  "MultibandAccelerationFactor": 4,
  "PartialFourier": 1,
  "PercentPhaseFOV": 100,
  "PhaseEncodingDirection": "j-",
  "PhaseEncodingSteps": 96,
  "PhaseResolution": 1,
  "ProcedureStepDescription": "Gobbini_Matteo_1038_hyperface",
  "ProtocolName": "func_run-01_task-localizer",
  "PulseSequenceDetails": "%SiemensSeq%_ep2d_bold",
  "ReceiveCoilActiveElements": "HEA;HEP",
  "ReceiveCoilName": "Head_32",
  "ReconMatrixPE": 96,
  "RepetitionTime": 1,
  "ScanOptions": "FS",
  "ScanningSequence": "EP",
  "SequenceName": "_epfid2d1_96",
  "SequenceVariant": "SK",
  "SeriesDescription": "func_run-01_task-localizer",
  "SliceTiming": [0.735, 0, 0.49, 0.0825, 0.5725, 0.165, 0.655, 0.3275, 0.8175, 0.41, 0.9, 0.245, 0.735, 0, 0.49, 0.0825, 0.5725, 0.165, 0.655, 0.3275, 0.8175, 0.41, 0.9, 0.245, 0.735, 0, 0.49, 0.0825, 0.5725, 0.165, 0.655, 0.3275, 0.8175, 0.41, 0.9, 0.245, 0.735, 0, 0.49, 0.0825, 0.5725, 0.165, 0.655, 0.3275, 0.8175, 0.41, 0.9, 0.245],
  "SoftwareVersions": "syngo_MR_E11",
  "StationName": "AWP66112",
  "TotalReadoutTime": 0.0522511,
  "dcmmeta_affine": [
    [-2.4997775554656982, -0.033160194754600525, -0.0036022448912262917, 123.42800903320312],
    [-0.03314701467752457, 2.4997639656066895, -0.009022184647619724, -104.96260070800781],
    [-0.003721575951203704, 0.008973619900643826, 2.499981164932251, -70.30608367919922],
    [0.0, 0.0, 0.0, 1.0]
],
  "dcmmeta_reorient_transform": [
    [0.0, -1.0, 0.0, 95.0],
    [1.0, 0.0, 0.0, 0.0],
    [0.0, 0.0, 1.0, 0.0],
    [0.0, 0.0, 0.0, 1.0]
],
  "dcmmeta_shape": [96, 96, 48, 236],
  "dcmmeta_slice_dim": 2,
  "dcmmeta_version": 0.6,
  "global": {
    "const": {
      "AccessionNumber": "A001155",
      "AcquisitionMatrix": [96, 0, 0, 96],
      "AngioFlag": "N",
      "BitsAllocated": 16,
      "BitsStored": 12,
      "BodyPartExamined": "BRAIN",
      "Columns": 672,
      "EchoNumbers": 1,
      "EchoTime": 33.0,
      "EchoTrainLength": 96,
      "FlipAngle": 59.0,
      "HighBit": 11,
      "ImageOrientationPatient": [0.99991099005893, 0.01325880609414, -0.0014886303533, -0.0132640782678, 0.99990558558854, -0.0035894479457],
      "ImagePositionPatient": [-830.66356611711, -861.99333548104, -65.797371992466],
      "ImageType": [
        "ORIGINAL",
        "PRIMARY",
        "FMRI",
        "NONE",
        "ND",
        "NORM",
        "MOSAIC"
],
      "ImagedNucleus": "1H",
      "ImagingFrequency": 123.25231,
      "InPlanePhaseEncodingDirection": "COL",
      "MRAcquisitionType": "2D",
      "MagneticFieldStrength": 3.0,
      "Manufacturer": "SIEMENS",
      "ManufacturerModelName": "Prisma",
      "Modality": "MR",
      "NumberOfAverages": 1.0,
      "NumberOfPhaseEncodingSteps": 96,
      "PercentPhaseFieldOfView": 100.0,
      "PercentSampling": 100.0,
      "PerformedProcedureStepStartTime": "185608.983000",
      "PhotometricInterpretation": "MONOCHROME2",
      "PixelBandwidth": 2365.0,
      "PixelRepresentation": 0,
      "PixelSpacing": [2.5, 2.5],
      "PositionReferenceIndicator": "",
      "ProtocolName": "func_run-01_task-localizer",
      "RepetitionTime": 1000.0,
      "Rows": 672,
      "SAR": 0.04886294896858,
      "SamplesPerPixel": 1,
      "ScanOptions": "FS",
      "ScanningSequence": "EP",
      "SequenceName": "*epfid2d1_96",
      "SequenceVariant": "SK",
      "SeriesDescription": "func_run-01_task-localizer",
      "SeriesNumber": 7,
      "SeriesTime": "191538.201000",
      "SliceLocation": -70.10460182398,
      "SliceThickness": 2.5,
      "SmallestImagePixelValue": 0,
      "SoftwareVersions": "syngo MR E11",
      "SpacingBetweenSlices": 2.499999964113,
      "SpecificCharacterSet": "ISO_IR 100",
      "StudyID": "2",
      "StudyTime": "185608.929000",
      "TransmitCoilName": "Body",
      "VariableFlipAngleFlag": "N",
      "WindowCenterWidthExplanation": "Algo1",
      "dBdt": 0.0},
    "slices": {}
  },
  "time": {
    "samples": {
      "AcquisitionNumber": [1, 2, 3, 4, 5, 6, 7, 8, 9, 10, 11, 12, 13, 14, 15, 16, 17, 18, 19, 20, 21, 22, 23, 24, 25, 26, 27, 28, 29, 30, 31, 32, 33, 34, 35, 36, 37, 38, 39, 40, 41, 42, 43, 44, 45, 46, 47, 48, 49, 50, 51, 52, 53, 54, 55, 56, 57, 58, 59, 60, 61, 62, 63, 64, 65, 66, 67, 68, 69, 70, 71, 72, 73, 74, 75, 76, 77, 78, 79, 80, 81, 82, 83, 84, 85, 86, 87, 88, 89, 90, 91, 92, 93, 94, 95, 96, 97, 98, 99, 100, 101, 102, 103, 104, 105, 106, 107, 108, 109, 110, 111, 112, 113, 114, 115, 116, 117, 118, 119, 120, 121, 122, 123, 124, 125, 126, 127, 128, 129, 130, 131, 132, 133, 134, 135, 136, 137, 138, 139, 140, 141, 142, 143, 144, 145, 146, 147, 148, 149, 150, 151, 152, 153, 154, 155, 156, 157, 158, 159, 160, 161, 162, 163, 164, 165, 166, 167, 168, 169, 170, 171, 172, 173, 174, 175, 176, 177, 178, 179, 180, 181, 182, 183, 184, 185, 186, 187, 188, 189, 190, 191, 192, 193, 194, 195, 196, 197, 198, 199, 200, 201, 202, 203, 204, 205, 206, 207, 208, 209, 210, 211, 212, 213, 214, 215, 216, 217, 218, 219, 220, 221, 222, 223, 224, 225, 226, 227, 228, 229, 230, 231, 232, 233, 234, 235, 236],
      "AcquisitionTime": ["191537.250000", "191538.250000", "191539.250000", "191540.250000", "191541.250000", "191542.250000", "191543.250000", "191544.250000", "191545.250000", "191546.250000", "191547.250000", "191548.250000", "191549.250000", "191550.250000", "191551.250000", "191552.250000", "191553.250000", "191554.250000", "191555.250000", "191556.250000", "191557.250000", "191558.250000", "191559.250000", "191600.250000", "191601.250000", "191602.250000", "191603.250000", "191604.250000", "191605.250000", "191606.250000", "191607.250000", "191608.250000", "191609.250000", "191610.250000", "191611.250000", "191612.250000", "191613.250000", "191614.250000", "191615.250000", "191616.250000", "191617.250000", "191618.250000", "191619.250000", "191620.250000", "191621.250000", "191622.250000", "191623.250000", "191624.250000", "191625.250000", "191626.250000", "191627.250000", "191628.250000", "191629.250000", "191630.250000", "191631.250000", "191632.250000", "191633.250000", "191634.250000", "191635.250000", "191636.250000", "191637.250000", "191638.250000", "191639.250000", "191640.250000", "191641.250000", "191642.250000", "191643.250000", "191644.250000", "191645.250000", "191646.250000", "191647.250000", "191648.250000", "191649.250000", "191650.250000", "191651.250000", "191652.250000", "191653.250000", "191654.250000", "191655.250000", "191656.250000", "191657.250000", "191658.250000", "191659.250000", "191700.250000", "191701.250000", "191702.250000", "191703.250000", "191704.250000", "191705.250000", "191706.250000", "191707.250000", "191708.250000", "191709.250000", "191710.250000", "191711.250000", "191712.250000", "191713.250000", "191714.250000", "191715.250000", "191716.250000", "191717.250000", "191718.250000", "191719.250000", "191720.250000", "191721.250000", "191722.250000", "191723.250000", "191724.250000", "191725.250000", "191726.250000", "191727.250000", "191728.250000", "191729.250000", "191730.250000", "191731.250000", "191732.250000", "191733.250000", "191734.250000", "191735.250000", "191736.250000", "191737.250000", "191738.250000", "191739.250000", "191740.250000", "191741.250000", "191742.250000", "191743.250000", "191744.250000", "191745.250000", "191746.250000", "191747.250000", "191748.250000", "191749.250000", "191750.250000", "191751.250000", "191752.250000", "191753.250000", "191754.250000", "191755.250000", "191756.250000", "191757.250000", "191758.250000", "191759.250000", "191800.250000", "191801.250000", "191802.250000", "191803.250000", "191804.250000", "191805.250000", "191806.250000", "191807.250000", "191808.250000", "191809.250000", "191810.250000", "191811.250000", "191812.250000", "191813.250000", "191814.250000", "191815.250000", "191816.250000", "191817.250000", "191818.250000", "191819.250000", "191820.250000", "191821.250000", "191822.250000", "191823.250000", "191824.250000", "191825.250000", "191826.250000", "191827.250000", "191828.250000", "191829.250000", "191830.250000", "191831.250000", "191832.250000", "191833.250000", "191834.250000", "191835.250000", "191836.250000", "191837.250000", "191838.250000", "191839.250000", "191840.250000", "191841.250000", "191842.250000", "191843.250000", "191844.250000", "191845.250000", "191846.250000", "191847.250000", "191848.250000", "191849.250000", "191850.250000", "191851.250000", "191852.250000", "191853.250000", "191854.250000", "191855.250000", "191856.250000", "191857.250000", "191858.250000", "191859.250000", "191900.250000", "191901.250000", "191902.250000", "191903.250000", "191904.250000", "191905.250000", "191906.250000", "191907.250000", "191908.250000", "191909.250000", "191910.250000", "191911.250000", "191912.250000", "191913.250000", "191914.250000", "191915.250000", "191916.250000", "191917.250000", "191918.250000", "191919.250000", "191920.250000", "191921.250000", "191922.250000", "191923.250000", "191924.250000", "191925.250000", "191926.250000", "191927.250000", "191928.250000", "191929.250000", "191930.250000", "191931.250000", "191932.250000"],
      "ContentTime": ["191538.205000", "191538.998000", "191540.023000", "191540.985000", "191542.028000", "191543.046000", "191544.009000", "191545.024000", "191546.027000", "191547.045000", "191548.003000", "191549.028000", "191550.019000", "191551.023000", "191552.016000", "191553.016000", "191554.018000", "191555.023000", "191556.015000", "191557.045000", "191558.014000", "191558.985000", "191600.020000", "191601.040000", "191602.021000", "191603.018000", "191603.995000", "191605.025000", "191606.056000", "191607.031000", "191608.057000", "191609.022000", "191610.026000", "191611.024000", "191612.023000", "191613.040000", "191613.988000", "191615.047000", "191616.016000", "191617.013000", "191618.015000", "191618.994000", "191620.006000", "191621.008000", "191621.992000", "191623.026000", "191623.989000", "191625.009000", "191626.016000", "191627.020000", "191628.003000", "191629.006000", "191630.000000", "191631.036000", "191631.993000", "191633.024000", "191634.021000", "191635.008000", "191636.006000", "191637.011000", "191638.025000", "191639.022000", "191639.995000", "191640.987000", "191642.037000", "191643.034000", "191644.041000", "191645.058000", "191646.013000", "191646.987000", "191648.020000", "191649.063000", "191650.037000", "191650.987000", "191652.033000", "191653.013000", "191654.016000", "191654.982000", "191656.016000", "191657.050000", "191658.015000", "191659.027000", "191700.026000", "191701.051000", "191702.024000", "191703.021000", "191704.002000", "191705.006000", "191706.010000", "191707.035000", "191707.996000", "191709.013000", "191710.003000", "191711.051000", "191712.053000", "191713.006000", "191714.037000", "191715.021000", "191716.003000", "191717.010000", "191718.014000", "191719.022000", "191720.001000", "191721.032000", "191722.010000", "191723.028000", "191724.055000", "191725.004000", "191726.019000", "191727.036000", "191728.022000", "191729.018000", "191730.017000", "191731.016000", "191732.031000", "191732.998000", "191734.003000", "191735.039000", "191736.024000", "191737.048000", "191737.992000", "191739.006000", "191740.021000", "191740.993000", "191742.021000", "191743.020000", "191744.010000", "191745.003000", "191746.018000", "191747.052000", "191748.022000", "191749.038000", "191750.017000", "191751.011000", "191752.043000", "191753.019000", "191754.043000", "191755.026000", "191756.055000", "191757.027000", "191758.013000", "191759.025000", "191800.019000", "191801.004000", "191802.036000", "191803.014000", "191804.012000", "191805.022000", "191806.075000", "191807.016000", "191808.023000", "191808.993000", "191810.038000", "191811.012000", "191812.039000", "191813.009000", "191814.035000", "191815.020000", "191816.020000", "191817.040000", "191818.050000", "191819.075000", "191820.037000", "191821.062000", "191822.016000", "191823.010000", "191824.018000", "191825.018000", "191826.018000", "191827.028000", "191827.993000", "191829.020000", "191830.015000", "191830.987000", "191832.053000", "191833.023000", "191834.043000", "191835.022000", "191836.034000", "191837.057000", "191838.041000", "191839.069000", "191840.018000", "191841.019000", "191842.029000", "191843.004000", "191843.985000", "191845.043000", "191846.027000", "191847.025000", "191848.040000", "191849.018000", "191850.078000", "191851.020000", "191852.023000", "191853.000000", "191854.034000", "191855.020000", "191856.043000", "191857.071000", "191858.056000", "191858.978000", "191859.991000", "191901.003000", "191902.013000", "191903.011000", "191904.008000", "191904.998000", "191906.016000", "191907.023000", "191908.031000", "191909.019000", "191910.016000", "191911.021000", "191912.028000", "191913.021000", "191914.034000", "191915.045000", "191916.023000", "191917.024000", "191918.033000", "191919.038000", "191920.012000", "191921.012000", "191922.025000", "191923.002000", "191924.007000", "191925.010000", "191926.051000", "191927.009000", "191928.037000", "191929.049000", "191930.014000", "191930.997000", "191932.019000", "191933.039000"],
      "InstanceCreationTime": ["191538.205000", "191538.998000", "191540.023000", "191540.985000", "191542.028000", "191543.046000", "191544.009000", "191545.024000", "191546.027000", "191547.045000", "191548.003000", "191549.028000", "191550.019000", "191551.023000", "191552.016000", "191553.016000", "191554.018000", "191555.023000", "191556.015000", "191557.045000", "191558.014000", "191558.985000", "191600.020000", "191601.040000", "191602.021000", "191603.018000", "191603.995000", "191605.025000", "191606.056000", "191607.031000", "191608.057000", "191609.022000", "191610.026000", "191611.024000", "191612.023000", "191613.040000", "191613.988000", "191615.047000", "191616.016000", "191617.013000", "191618.015000", "191618.994000", "191620.006000", "191621.008000", "191621.992000", "191623.026000", "191623.989000", "191625.009000", "191626.016000", "191627.020000", "191628.003000", "191629.006000", "191630.000000", "191631.036000", "191631.993000", "191633.024000", "191634.021000", "191635.008000", "191636.006000", "191637.011000", "191638.025000", "191639.022000", "191639.995000", "191640.987000", "191642.037000", "191643.034000", "191644.041000", "191645.058000", "191646.013000", "191646.987000", "191648.020000", "191649.063000", "191650.037000", "191650.987000", "191652.033000", "191653.013000", "191654.016000", "191654.982000", "191656.016000", "191657.050000", "191658.015000", "191659.027000", "191700.026000", "191701.051000", "191702.024000", "191703.021000", "191704.002000", "191705.006000", "191706.010000", "191707.035000", "191707.996000", "191709.013000", "191710.003000", "191711.051000", "191712.053000", "191713.006000", "191714.037000", "191715.021000", "191716.003000", "191717.010000", "191718.014000", "191719.022000", "191720.001000", "191721.032000", "191722.010000", "191723.028000", "191724.055000", "191725.004000", "191726.019000", "191727.036000", "191728.022000", "191729.018000", "191730.017000", "191731.016000", "191732.031000", "191732.998000", "191734.003000", "191735.039000", "191736.024000", "191737.048000", "191737.992000", "191739.006000", "191740.021000", "191740.993000", "191742.021000", "191743.020000", "191744.010000", "191745.003000", "191746.018000", "191747.052000", "191748.022000", "191749.038000", "191750.017000", "191751.011000", "191752.043000", "191753.019000", "191754.043000", "191755.026000", "191756.055000", "191757.027000", "191758.013000", "191759.025000", "191800.019000", "191801.004000", "191802.036000", "191803.014000", "191804.012000", "191805.022000", "191806.075000", "191807.016000", "191808.023000", "191808.993000", "191810.038000", "191811.012000", "191812.039000", "191813.009000", "191814.035000", "191815.020000", "191816.020000", "191817.040000", "191818.050000", "191819.075000", "191820.037000", "191821.062000", "191822.016000", "191823.010000", "191824.018000", "191825.018000", "191826.018000", "191827.028000", "191827.993000", "191829.020000", "191830.015000", "191830.987000", "191832.053000", "191833.023000", "191834.043000", "191835.022000", "191836.034000", "191837.057000", "191838.041000", "191839.069000", "191840.018000", "191841.019000", "191842.029000", "191843.004000", "191843.985000", "191845.043000", "191846.027000", "191847.025000", "191848.040000", "191849.018000", "191850.078000", "191851.020000", "191852.023000", "191853.000000", "191854.034000", "191855.020000", "191856.043000", "191857.071000", "191858.056000", "191858.978000", "191859.991000", "191901.003000", "191902.013000", "191903.011000", "191904.008000", "191904.998000", "191906.016000", "191907.023000", "191908.031000", "191909.019000", "191910.016000", "191911.021000", "191912.028000", "191913.021000", "191914.034000", "191915.045000", "191916.023000", "191917.024000", "191918.033000", "191919.038000", "191920.012000", "191921.012000", "191922.025000", "191923.002000", "191924.007000", "191925.010000", "191926.051000", "191927.009000", "191928.037000", "191929.049000", "191930.014000", "191930.997000", "191932.019000", "191933.039000"],
      "InstanceNumber": [1, 2, 3, 4, 5, 6, 7, 8, 9, 10, 11, 12, 13, 14, 15, 16, 17, 18, 19, 20, 21, 22, 23, 24, 25, 26, 27, 28, 29, 30, 31, 32, 33, 34, 35, 36, 37, 38, 39, 40, 41, 42, 43, 44, 45, 46, 47, 48, 49, 50, 51, 52, 53, 54, 55, 56, 57, 58, 59, 60, 61, 62, 63, 64, 65, 66, 67, 68, 69, 70, 71, 72, 73, 74, 75, 76, 77, 78, 79, 80, 81, 82, 83, 84, 85, 86, 87, 88, 89, 90, 91, 92, 93, 94, 95, 96, 97, 98, 99, 100, 101, 102, 103, 104, 105, 106, 107, 108, 109, 110, 111, 112, 113, 114, 115, 116, 117, 118, 119, 120, 121, 122, 123, 124, 125, 126, 127, 128, 129, 130, 131, 132, 133, 134, 135, 136, 137, 138, 139, 140, 141, 142, 143, 144, 145, 146, 147, 148, 149, 150, 151, 152, 153, 154, 155, 156, 157, 158, 159, 160, 161, 162, 163, 164, 165, 166, 167, 168, 169, 170, 171, 172, 173, 174, 175, 176, 177, 178, 179, 180, 181, 182, 183, 184, 185, 186, 187, 188, 189, 190, 191, 192, 193, 194, 195, 196, 197, 198, 199, 200, 201, 202, 203, 204, 205, 206, 207, 208, 209, 210, 211, 212, 213, 214, 215, 216, 217, 218, 219, 220, 221, 222, 223, 224, 225, 226, 227, 228, 229, 230, 231, 232, 233, 234, 235, 236],
      "LargestImagePixelValue": [1282, 1036, 986, 1004, 1409, 1119, 1052, 1100, 1357, 1154, 922, 939, 858, 1390, 1016, 891, 915, 1328, 1099, 917, 866, 886, 1297, 1222, 900, 833, 1019, 950, 1294, 953, 892, 886, 1112, 1338, 1115, 1002, 1033, 1022, 1277, 1243, 954, 946, 955, 1117, 1224, 1188, 949, 874, 866, 948, 1051, 1296, 1244, 1027, 888, 928, 1300, 1131, 1116, 1015, 976, 909, 1411, 1163, 1075, 1111, 1081, 1039, 1342, 1253, 1214, 1150, 1069, 953, 1031, 1363, 1145, 1037, 990, 883, 995, 1350, 1069, 924, 947, 959, 967, 1356, 1206, 1144, 972, 1048, 985, 1051, 1037, 1023, 1307, 1347, 1173, 1132, 1018, 1066, 1087, 1061, 1020, 1012, 1286, 1385, 1279, 1272, 1191, 1114, 979, 1023, 1141, 1101, 1118, 1267, 1310, 1227, 1017, 1015, 1058, 994, 981, 997, 1227, 1233, 1207, 952, 829, 829, 1098, 1350, 1124, 924, 1032, 947, 1343, 1109, 1014, 1083, 972, 951, 1174, 1193, 1228, 967, 947, 991, 1167, 1198, 1262, 1215, 1098, 1112, 957, 1012, 926, 1367, 1114, 1022, 1063, 980, 1020, 1310, 1030, 1307, 1275, 1132, 1015, 944, 964, 966, 1196, 1119, 1280, 1247, 1035, 957, 858, 919, 954, 1075, 1116, 1341, 1291, 1115, 1084, 1056, 1014, 948, 1242, 1351, 1252, 1092, 1040, 1070, 1019, 1118, 1333, 1324, 1207, 1124, 1038, 1022, 1092, 1038, 1277, 1236, 1255, 992, 972, 1008, 1005, 923, 948, 1022, 1316, 1339, 1220, 1189, 1100, 1100, 1101, 1224, 1320, 1189, 1154, 1011, 1049, 1002, 1048, 1085, 972, 1300],
      "WindowCenter": [383.0, 380.0, 379.0, 378.0, 380.0, 379.0, 378.0, 378.0, 379.0, 378.0, 377.0, 377.0, 376.0, 380.0, 378.0, 376.0, 376.0, 378.0, 377.0, 376.0, 375.0, 376.0, 379.0, 379.0, 377.0, 377.0, 378.0, 377.0, 380.0, 378.0, 377.0, 377.0, 379.0, 380.0, 378.0, 378.0, 378.0, 377.0, 379.0, 379.0, 377.0, 377.0, 378.0, 378.0, 379.0, 379.0, 378.0, 377.0, 377.0, 378.0, 379.0, 380.0, 380.0, 378.0, 377.0, 378.0, 380.0, 380.0, 380.0, 379.0, 378.0, 378.0, 381.0, 380.0, 379.0, 379.0, 378.0, 377.0, 380.0, 379.0, 380.0, 379.0, 379.0, 378.0, 378.0, 380.0, 379.0, 379.0, 378.0, 377.0, 378.0, 381.0, 379.0, 378.0, 377.0, 378.0, 378.0, 380.0, 380.0, 380.0, 379.0, 379.0, 378.0, 379.0, 379.0, 379.0, 381.0, 381.0, 380.0, 380.0, 379.0, 379.0, 378.0, 378.0, 378.0, 378.0, 381.0, 381.0, 380.0, 381.0, 380.0, 380.0, 379.0, 379.0, 379.0, 379.0, 378.0, 379.0, 379.0, 379.0, 378.0, 377.0, 378.0, 378.0, 378.0, 378.0, 380.0, 379.0, 379.0, 379.0, 378.0, 379.0, 380.0, 381.0, 380.0, 378.0, 379.0, 378.0, 381.0, 379.0, 378.0, 379.0, 378.0, 378.0, 380.0, 379.0, 379.0, 378.0, 377.0, 377.0, 378.0, 378.0, 378.0, 378.0, 378.0, 379.0, 377.0, 378.0, 378.0, 380.0, 378.0, 377.0, 378.0, 377.0, 377.0, 378.0, 377.0, 379.0, 380.0, 379.0, 377.0, 377.0, 377.0, 377.0, 379.0, 378.0, 380.0, 380.0, 379.0, 378.0, 378.0, 378.0, 378.0, 379.0, 379.0, 381.0, 381.0, 380.0, 379.0, 380.0, 379.0, 379.0, 380.0, 381.0, 381.0, 380.0, 379.0, 380.0, 379.0, 380.0, 381.0, 381.0, 380.0, 380.0, 379.0, 379.0, 379.0, 379.0, 380.0, 379.0, 380.0, 378.0, 378.0, 378.0, 378.0, 378.0, 378.0, 380.0, 382.0, 381.0, 381.0, 380.0, 379.0, 379.0, 378.0, 378.0, 379.0, 379.0, 379.0, 378.0, 377.0, 377.0, 377.0, 378.0, 377.0, 379.0],
      "WindowWidth": [814.0, 809.0, 806.0, 806.0, 809.0, 806.0, 805.0, 805.0, 806.0, 805.0, 803.0, 803.0, 802.0, 808.0, 804.0, 801.0, 801.0, 805.0, 803.0, 802.0, 800.0, 802.0, 806.0, 807.0, 803.0, 802.0, 805.0, 803.0, 808.0, 804.0, 803.0, 803.0, 806.0, 808.0, 805.0, 804.0, 804.0, 804.0, 806.0, 806.0, 803.0, 803.0, 804.0, 805.0, 806.0, 806.0, 804.0, 803.0, 803.0, 805.0, 806.0, 808.0, 808.0, 806.0, 803.0, 805.0, 808.0, 807.0, 807.0, 807.0, 806.0, 805.0, 809.0, 807.0, 807.0, 806.0, 804.0, 803.0, 807.0, 807.0, 807.0, 807.0, 807.0, 804.0, 806.0, 808.0, 805.0, 806.0, 805.0, 804.0, 805.0, 809.0, 806.0, 804.0, 804.0, 804.0, 805.0, 809.0, 807.0, 807.0, 806.0, 806.0, 805.0, 806.0, 806.0, 806.0, 809.0, 810.0, 809.0, 808.0, 806.0, 806.0, 804.0, 806.0, 805.0, 806.0, 809.0, 810.0, 808.0, 809.0, 809.0, 809.0, 807.0, 806.0, 806.0, 806.0, 805.0, 806.0, 806.0, 805.0, 804.0, 803.0, 805.0, 805.0, 805.0, 805.0, 808.0, 807.0, 807.0, 806.0, 806.0, 807.0, 809.0, 810.0, 808.0, 805.0, 806.0, 805.0, 809.0, 807.0, 806.0, 806.0, 805.0, 805.0, 807.0, 807.0, 807.0, 805.0, 803.0, 803.0, 804.0, 804.0, 804.0, 805.0, 804.0, 806.0, 804.0, 805.0, 804.0, 808.0, 805.0, 804.0, 804.0, 802.0, 803.0, 804.0, 802.0, 806.0, 808.0, 806.0, 804.0, 803.0, 803.0, 804.0, 806.0, 805.0, 808.0, 807.0, 806.0, 806.0, 806.0, 805.0, 804.0, 807.0, 806.0, 809.0, 809.0, 808.0, 807.0, 807.0, 807.0, 806.0, 809.0, 810.0, 810.0, 808.0, 807.0, 807.0, 807.0, 808.0, 809.0, 809.0, 808.0, 807.0, 806.0, 806.0, 807.0, 807.0, 809.0, 807.0, 809.0, 805.0, 805.0, 804.0, 805.0, 804.0, 806.0, 808.0, 810.0, 810.0, 810.0, 808.0, 806.0, 806.0, 805.0, 805.0, 807.0, 805.0, 805.0, 805.0, 804.0, 803.0, 803.0, 805.0, 803.0, 807.0]
    },
    "slices": {}
  }
}