{
  "AcquisitionMatrixPE": 96,
  "AcquisitionNumber": 1,
  "AcquisitionTime": "19:25:46.545000",
  "BandwidthPerPixelPhaseEncode": 18.939,
  "BaseResolution": 96,
  "BodyPartExamined": "BRAIN",
  "ConsistencyInfo": "N4_VE11C_LATEST_20160120",
  "ConversionSoftware": "dcm2niix",
  "ConversionSoftwareVersion": "v1.0.20170923 (OpenJPEG build) GCC6.3.0",
  "DerivedVendorReportedEchoSpacing": 0.000550011,
  "DeviceSerialNumber": "66112",
  "DwellTime": 2.2e-06,
  "EchoTime": 0.033,
  "EchoTrainLength": 96,
  "EffectiveEchoSpacing": 0.000550011,
  "FlipAngle": 59,
  "ImageType": [
    "ORIGINAL",
    "PRIMARY",
    "FMRI",
    "NONE",
    "ND",
    "NORM",
    "MOSAIC"
],
  "InstitutionAddress": "Maynard_3_Hanover_NH_US_03755",
  "InstitutionName": "Dartmouth_College_-_PBS",
  "MagneticFieldStrength": 3,
  "Manufacturer": "Siemens",
  "ManufacturersModelName": "Prisma",
  "Modality": "MR",
  "MultibandAccelerationFactor": 4,
  "PartialFourier": 1,
  "PercentPhaseFOV": 100,
  "PhaseEncodingDirection": "j-",
  "PhaseEncodingSteps": 96,
  "PhaseResolution": 1,
  "ProcedureStepDescription": "Gobbini_Matteo_1038_hyperface",
  "ProtocolName": "func_run-03_task-visualmemory",
  "PulseSequenceDetails": "%SiemensSeq%_ep2d_bold",
  "ReceiveCoilActiveElements": "HEA;HEP",
  "ReceiveCoilName": "Head_32",
  "ReconMatrixPE": 96,
  "RepetitionTime": 1,
  "ScanOptions": "FS",
  "ScanningSequence": "EP",
  "SequenceName": "_epfid2d1_96",
  "SequenceVariant": "SK",
  "SeriesDescription": "func_run-03_task-visualmemory",
  "SliceTiming": [0.735, 0, 0.49, 0.0825, 0.5725, 0.1625, 0.6525, 0.3275, 0.8175, 0.4075, 0.8975, 0.245, 0.735, 0, 0.49, 0.0825, 0.5725, 0.1625, 0.6525, 0.3275, 0.8175, 0.4075, 0.8975, 0.245, 0.735, 0, 0.49, 0.0825, 0.5725, 0.1625, 0.6525, 0.3275, 0.8175, 0.4075, 0.8975, 0.245, 0.735, 0, 0.49, 0.0825, 0.5725, 0.1625, 0.6525, 0.3275, 0.8175, 0.4075, 0.8975, 0.245],
  "SoftwareVersions": "syngo_MR_E11",
  "StationName": "AWP66112",
  "TotalReadoutTime": 0.0522511,
  "dcmmeta_affine": [
    [-2.4997775554656982, -0.033160194754600525, -0.0036022448912262917, 123.42800903320312],
    [-0.03314701467752457, 2.4997639656066895, -0.009022184647619724, -104.96260070800781],
    [-0.003721575951203704, 0.008973619900643826, 2.499981164932251, -70.30608367919922],
    [0.0, 0.0, 0.0, 1.0]
],
  "dcmmeta_reorient_transform": [
    [0.0, -1.0, 0.0, 95.0],
    [1.0, 0.0, 0.0, 0.0],
    [0.0, 0.0, 1.0, 0.0],
    [0.0, 0.0, 0.0, 1.0]
],
  "dcmmeta_shape": [96, 96, 48, 288],
  "dcmmeta_slice_dim": 2,
  "dcmmeta_version": 0.6,
  "global": {
    "const": {
      "AccessionNumber": "A001155",
      "AcquisitionMatrix": [96, 0, 0, 96],
      "AngioFlag": "N",
      "BitsAllocated": 16,
      "BitsStored": 12,
      "BodyPartExamined": "BRAIN",
      "Columns": 672,
      "EchoNumbers": 1,
      "EchoTime": 33.0,
      "EchoTrainLength": 96,
      "FlipAngle": 59.0,
      "HighBit": 11,
      "ImageOrientationPatient": [0.99991099005893, 0.01325880609414, -0.0014886303533, -0.0132640782678, 0.99990558558854, -0.0035894479457],
      "ImagePositionPatient": [-830.66356611711, -861.99333548104, -65.797371992466],
      "ImageType": [
        "ORIGINAL",
        "PRIMARY",
        "FMRI",
        "NONE",
        "ND",
        "NORM",
        "MOSAIC"
],
      "ImagedNucleus": "1H",
      "ImagingFrequency": 123.252315,
      "InPlanePhaseEncodingDirection": "COL",
      "MRAcquisitionType": "2D",
      "MagneticFieldStrength": 3.0,
      "Manufacturer": "SIEMENS",
      "ManufacturerModelName": "Prisma",
      "Modality": "MR",
      "NumberOfAverages": 1.0,
      "NumberOfPhaseEncodingSteps": 96,
      "PercentPhaseFieldOfView": 100.0,
      "PercentSampling": 100.0,
      "PerformedProcedureStepStartTime": "185608.983000",
      "PhotometricInterpretation": "MONOCHROME2",
      "PixelBandwidth": 2365.0,
      "PixelRepresentation": 0,
      "PixelSpacing": [2.5, 2.5],
      "PositionReferenceIndicator": "",
      "ProtocolName": "func_run-03_task-visualmemory",
      "RepetitionTime": 1000.0,
      "Rows": 672,
      "SAR": 0.04898006426264,
      "SamplesPerPixel": 1,
      "ScanOptions": "FS",
      "ScanningSequence": "EP",
      "SequenceName": "*epfid2d1_96",
      "SequenceVariant": "SK",
      "SeriesDescription": "func_run-03_task-visualmemory",
      "SeriesNumber": 21,
      "SeriesTime": "192547.510000",
      "SliceLocation": -70.10460182398,
      "SliceThickness": 2.5,
      "SmallestImagePixelValue": 0,
      "SoftwareVersions": "syngo MR E11",
      "SpacingBetweenSlices": 2.499999964113,
      "SpecificCharacterSet": "ISO_IR 100",
      "StudyID": "2",
      "StudyTime": "185608.929000",
      "TransmitCoilName": "Body",
      "VariableFlipAngleFlag": "N",
      "WindowCenterWidthExplanation": "Algo1",
      "dBdt": 0.0},
    "slices": {}
  },
  "time": {
    "samples": {
      "AcquisitionNumber": [1, 2, 3, 4, 5, 6, 7, 8, 9, 10, 11, 12, 13, 14, 15, 16, 17, 18, 19, 20, 21, 22, 23, 24, 25, 26, 27, 28, 29, 30, 31, 32, 33, 34, 35, 36, 37, 38, 39, 40, 41, 42, 43, 44, 45, 46, 47, 48, 49, 50, 51, 52, 53, 54, 55, 56, 57, 58, 59, 60, 61, 62, 63, 64, 65, 66, 67, 68, 69, 70, 71, 72, 73, 74, 75, 76, 77, 78, 79, 80, 81, 82, 83, 84, 85, 86, 87, 88, 89, 90, 91, 92, 93, 94, 95, 96, 97, 98, 99, 100, 101, 102, 103, 104, 105, 106, 107, 108, 109, 110, 111, 112, 113, 114, 115, 116, 117, 118, 119, 120, 121, 122, 123, 124, 125, 126, 127, 128, 129, 130, 131, 132, 133, 134, 135, 136, 137, 138, 139, 140, 141, 142, 143, 144, 145, 146, 147, 148, 149, 150, 151, 152, 153, 154, 155, 156, 157, 158, 159, 160, 161, 162, 163, 164, 165, 166, 167, 168, 169, 170, 171, 172, 173, 174, 175, 176, 177, 178, 179, 180, 181, 182, 183, 184, 185, 186, 187, 188, 189, 190, 191, 192, 193, 194, 195, 196, 197, 198, 199, 200, 201, 202, 203, 204, 205, 206, 207, 208, 209, 210, 211, 212, 213, 214, 215, 216, 217, 218, 219, 220, 221, 222, 223, 224, 225, 226, 227, 228, 229, 230, 231, 232, 233, 234, 235, 236, 237, 238, 239, 240, 241, 242, 243, 244, 245, 246, 247, 248, 249, 250, 251, 252, 253, 254, 255, 256, 257, 258, 259, 260, 261, 262, 263, 264, 265, 266, 267, 268, 269, 270, 271, 272, 273, 274, 275, 276, 277, 278, 279, 280, 281, 282, 283, 284, 285, 286, 287, 288],
      "AcquisitionTime": ["192546.545000", "192547.545000", "192548.545000", "192549.545000", "192550.545000", "192551.545000", "192552.545000", "192553.545000", "192554.545000", "192555.545000", "192556.545000", "192557.545000", "192558.545000", "192559.545000", "192600.545000", "192601.545000", "192602.545000", "192603.545000", "192604.545000", "192605.545000", "192606.545000", "192607.545000", "192608.545000", "192609.545000", "192610.545000", "192611.545000", "192612.545000", "192613.545000", "192614.545000", "192615.545000", "192616.545000", "192617.545000", "192618.545000", "192619.545000", "192620.545000", "192621.545000", "192622.545000", "192623.545000", "192624.545000", "192625.545000", "192626.545000", "192627.545000", "192628.545000", "192629.545000", "192630.545000", "192631.545000", "192632.545000", "192633.545000", "192634.545000", "192635.545000", "192636.545000", "192637.545000", "192638.545000", "192639.545000", "192640.545000", "192641.545000", "192642.545000", "192643.545000", "192644.545000", "192645.545000", "192646.545000", "192647.545000", "192648.545000", "192649.545000", "192650.545000", "192651.545000", "192652.545000", "192653.545000", "192654.545000", "192655.545000", "192656.545000", "192657.545000", "192658.545000", "192659.545000", "192700.545000", "192701.545000", "192702.545000", "192703.545000", "192704.545000", "192705.545000", "192706.545000", "192707.545000", "192708.545000", "192709.545000", "192710.545000", "192711.545000", "192712.545000", "192713.545000", "192714.545000", "192715.545000", "192716.545000", "192717.545000", "192718.545000", "192719.545000", "192720.545000", "192721.545000", "192722.545000", "192723.545000", "192724.545000", "192725.545000", "192726.545000", "192727.545000", "192728.545000", "192729.545000", "192730.545000", "192731.545000", "192732.545000", "192733.545000", "192734.545000", "192735.545000", "192736.545000", "192737.545000", "192738.545000", "192739.545000", "192740.545000", "192741.545000", "192742.545000", "192743.545000", "192744.545000", "192745.545000", "192746.545000", "192747.545000", "192748.545000", "192749.545000", "192750.545000", "192751.545000", "192752.545000", "192753.545000", "192754.545000", "192755.545000", "192756.545000", "192757.545000", "192758.545000", "192759.545000", "192800.545000", "192801.545000", "192802.545000", "192803.545000", "192804.545000", "192805.545000", "192806.545000", "192807.545000", "192808.545000", "192809.545000", "192810.545000", "192811.545000", "192812.545000", "192813.545000", "192814.545000", "192815.545000", "192816.545000", "192817.545000", "192818.545000", "192819.545000", "192820.545000", "192821.545000", "192822.545000", "192823.545000", "192824.545000", "192825.545000", "192826.545000", "192827.545000", "192828.545000", "192829.545000", "192830.545000", "192831.545000", "192832.545000", "192833.545000", "192834.545000", "192835.545000", "192836.545000", "192837.545000", "192838.545000", "192839.545000", "192840.545000", "192841.545000", "192842.545000", "192843.545000", "192844.545000", "192845.545000", "192846.545000", "192847.545000", "192848.545000", "192849.545000", "192850.545000", "192851.545000", "192852.545000", "192853.545000", "192854.545000", "192855.545000", "192856.545000", "192857.545000", "192858.545000", "192859.545000", "192900.545000", "192901.545000", "192902.545000", "192903.545000", "192904.545000", "192905.545000", "192906.545000", "192907.545000", "192908.545000", "192909.545000", "192910.545000", "192911.545000", "192912.545000", "192913.545000", "192914.545000", "192915.545000", "192916.545000", "192917.545000", "192918.545000", "192919.545000", "192920.545000", "192921.545000", "192922.545000", "192923.545000", "192924.545000", "192925.545000", "192926.545000", "192927.545000", "192928.545000", "192929.545000", "192930.545000", "192931.545000", "192932.545000", "192933.545000", "192934.545000", "192935.545000", "192936.545000", "192937.545000", "192938.545000", "192939.545000", "192940.545000", "192941.545000", "192942.545000", "192943.545000", "192944.545000", "192945.545000", "192946.545000", "192947.545000", "192948.545000", "192949.545000", "192950.545000", "192951.545000", "192952.545000", "192953.545000", "192954.545000", "192955.545000", "192956.545000", "192957.545000", "192958.545000", "192959.545000", "193000.545000", "193001.545000", "193002.545000", "193003.545000", "193004.545000", "193005.545000", "193006.545000", "193007.545000", "193008.545000", "193009.545000", "193010.545000", "193011.545000", "193012.545000", "193013.545000", "193014.545000", "193015.545000", "193016.545000", "193017.545000", "193018.545000", "193019.545000", "193020.545000", "193021.545000", "193022.545000", "193023.545000", "193024.545000", "193025.545000", "193026.545000", "193027.545000", "193028.545000", "193029.545000", "193030.545000", "193031.545000", "193032.545000", "193033.545000"],
      "ContentTime": ["192547.514000", "192548.362000", "192549.334000", "192550.349000", "192551.347000", "192552.353000", "192553.342000", "192554.353000", "192555.376000", "192556.384000", "192557.354000", "192558.349000", "192559.353000", "192600.346000", "192601.361000", "192602.328000", "192603.340000", "192604.328000", "192605.335000", "192606.341000", "192607.357000", "192608.395000", "192609.345000", "192610.353000", "192611.344000", "192612.335000", "192613.354000", "192614.352000", "192615.333000", "192616.360000", "192617.352000", "192618.374000", "192619.347000", "192620.351000", "192621.355000", "192622.324000", "192623.337000", "192624.362000", "192625.330000", "192626.331000", "192627.351000", "192628.335000", "192629.350000", "192630.338000", "192631.346000", "192632.348000", "192633.346000", "192634.363000", "192635.347000", "192636.347000", "192637.391000", "192638.349000", "192639.338000", "192640.330000", "192641.345000", "192642.342000", "192643.332000", "192644.350000", "192645.345000", "192646.353000", "192647.341000", "192648.354000", "192649.348000", "192650.354000", "192651.364000", "192652.375000", "192653.375000", "192654.336000", "192655.412000", "192656.352000", "192657.356000", "192658.364000", "192659.369000", "192700.346000", "192701.389000", "192702.342000", "192703.379000", "192704.367000", "192705.361000", "192706.377000", "192707.330000", "192708.359000", "192709.364000", "192710.363000", "192711.350000", "192712.333000", "192713.362000", "192714.343000", "192715.341000", "192716.343000", "192717.343000", "192718.372000", "192719.340000", "192720.390000", "192721.350000", "192722.383000", "192723.345000", "192724.348000", "192725.352000", "192726.345000", "192727.426000", "192728.348000", "192729.353000", "192730.415000", "192731.360000", "192732.366000", "192733.350000", "192734.352000", "192735.359000", "192736.367000", "192737.369000", "192738.350000", "192739.366000", "192740.386000", "192741.315000", "192742.383000", "192743.321000", "192744.348000", "192745.393000", "192746.372000", "192747.366000", "192748.383000", "192749.374000", "192750.362000", "192751.359000", "192752.405000", "192753.347000", "192754.347000", "192755.374000", "192756.365000", "192757.344000", "192758.375000", "192759.337000", "192800.350000", "192801.353000", "192802.343000", "192803.342000", "192804.359000", "192805.355000", "192806.354000", "192807.394000", "192808.350000", "192809.319000", "192810.360000", "192811.369000", "192812.344000", "192813.358000", "192814.366000", "192815.356000", "192816.353000", "192817.380000", "192818.380000", "192819.349000", "192820.340000", "192821.333000", "192822.353000", "192823.366000", "192824.345000", "192825.352000", "192826.333000", "192827.347000", "192828.347000", "192829.360000", "192830.321000", "192831.303000", "192832.376000", "192833.359000", "192834.369000", "192835.325000", "192836.316000", "192837.369000", "192838.336000", "192839.317000", "192840.374000", "192841.340000", "192842.341000", "192843.368000", "192844.418000", "192845.363000", "192846.343000", "192847.366000", "192848.345000", "192849.336000", "192850.347000", "192851.337000", "192852.349000", "192853.346000", "192854.335000", "192855.341000", "192856.369000", "192857.360000", "192858.362000", "192859.351000", "192900.399000", "192901.342000", "192902.372000", "192903.382000", "192904.351000", "192905.422000", "192906.359000", "192907.345000", "192908.376000", "192909.370000", "192910.373000", "192911.329000", "192912.353000", "192913.328000", "192914.343000", "192915.382000", "192916.350000", "192917.346000", "192918.353000", "192919.356000", "192920.371000", "192921.374000", "192922.331000", "192923.353000", "192924.312000", "192925.336000", "192926.356000", "192927.335000", "192928.320000", "192929.329000", "192930.370000", "192931.354000", "192932.360000", "192933.363000", "192934.344000", "192935.353000", "192936.344000", "192937.350000", "192938.372000", "192939.356000", "192940.321000", "192941.352000", "192942.328000", "192943.320000", "192944.343000", "192945.335000", "192946.352000", "192947.368000", "192948.341000", "192949.341000", "192950.344000", "192951.353000", "192952.320000", "192953.377000", "192954.403000", "192955.343000", "192956.360000", "192957.359000", "192958.364000", "192959.355000", "193000.341000", "193001.352000", "193002.345000", "193003.353000", "193004.369000", "193005.387000", "193006.371000", "193007.354000", "193008.348000", "193009.380000", "193010.357000", "193011.339000", "193012.354000", "193013.355000", "193014.377000", "193015.370000", "193016.369000", "193017.346000", "193018.363000", "193019.353000", "193020.388000", "193021.346000", "193022.332000", "193023.389000", "193024.346000", "193025.341000", "193026.341000", "193027.354000", "193028.354000", "193029.361000", "193030.367000", "193031.332000", "193032.344000", "193033.393000", "193034.381000"],
      "InstanceCreationTime": ["192547.514000", "192548.362000", "192549.334000", "192550.349000", "192551.347000", "192552.353000", "192553.342000", "192554.353000", "192555.376000", "192556.384000", "192557.354000", "192558.349000", "192559.353000", "192600.346000", "192601.361000", "192602.328000", "192603.340000", "192604.328000", "192605.335000", "192606.341000", "192607.357000", "192608.395000", "192609.345000", "192610.353000", "192611.344000", "192612.335000", "192613.354000", "192614.352000", "192615.333000", "192616.360000", "192617.352000", "192618.374000", "192619.347000", "192620.351000", "192621.355000", "192622.324000", "192623.337000", "192624.362000", "192625.330000", "192626.331000", "192627.351000", "192628.335000", "192629.350000", "192630.338000", "192631.346000", "192632.348000", "192633.346000", "192634.363000", "192635.347000", "192636.347000", "192637.391000", "192638.349000", "192639.338000", "192640.330000", "192641.345000", "192642.342000", "192643.332000", "192644.350000", "192645.345000", "192646.353000", "192647.341000", "192648.354000", "192649.348000", "192650.354000", "192651.364000", "192652.375000", "192653.375000", "192654.336000", "192655.412000", "192656.352000", "192657.356000", "192658.364000", "192659.369000", "192700.346000", "192701.389000", "192702.342000", "192703.379000", "192704.367000", "192705.361000", "192706.377000", "192707.330000", "192708.359000", "192709.364000", "192710.363000", "192711.350000", "192712.333000", "192713.362000", "192714.343000", "192715.341000", "192716.343000", "192717.343000", "192718.372000", "192719.340000", "192720.390000", "192721.350000", "192722.383000", "192723.345000", "192724.348000", "192725.352000", "192726.345000", "192727.426000", "192728.348000", "192729.353000", "192730.415000", "192731.360000", "192732.366000", "192733.350000", "192734.352000", "192735.359000", "192736.367000", "192737.369000", "192738.350000", "192739.366000", "192740.386000", "192741.315000", "192742.383000", "192743.321000", "192744.348000", "192745.393000", "192746.372000", "192747.366000", "192748.383000", "192749.374000", "192750.362000", "192751.359000", "192752.405000", "192753.347000", "192754.347000", "192755.374000", "192756.365000", "192757.344000", "192758.375000", "192759.337000", "192800.350000", "192801.353000", "192802.343000", "192803.342000", "192804.359000", "192805.355000", "192806.354000", "192807.394000", "192808.350000", "192809.319000", "192810.360000", "192811.369000", "192812.344000", "192813.358000", "192814.366000", "192815.356000", "192816.353000", "192817.380000", "192818.380000", "192819.349000", "192820.340000", "192821.333000", "192822.353000", "192823.366000", "192824.345000", "192825.352000", "192826.333000", "192827.347000", "192828.347000", "192829.360000", "192830.321000", "192831.303000", "192832.376000", "192833.359000", "192834.369000", "192835.325000", "192836.316000", "192837.369000", "192838.336000", "192839.317000", "192840.374000", "192841.340000", "192842.341000", "192843.368000", "192844.418000", "192845.363000", "192846.343000", "192847.366000", "192848.345000", "192849.336000", "192850.347000", "192851.337000", "192852.349000", "192853.346000", "192854.335000", "192855.341000", "192856.369000", "192857.360000", "192858.362000", "192859.351000", "192900.399000", "192901.342000", "192902.372000", "192903.382000", "192904.351000", "192905.422000", "192906.359000", "192907.345000", "192908.376000", "192909.370000", "192910.373000", "192911.329000", "192912.353000", "192913.328000", "192914.343000", "192915.382000", "192916.350000", "192917.346000", "192918.353000", "192919.356000", "192920.371000", "192921.374000", "192922.331000", "192923.353000", "192924.312000", "192925.336000", "192926.356000", "192927.335000", "192928.320000", "192929.329000", "192930.370000", "192931.354000", "192932.360000", "192933.363000", "192934.344000", "192935.353000", "192936.344000", "192937.350000", "192938.372000", "192939.356000", "192940.321000", "192941.352000", "192942.328000", "192943.320000", "192944.343000", "192945.335000", "192946.352000", "192947.368000", "192948.341000", "192949.341000", "192950.344000", "192951.353000", "192952.320000", "192953.377000", "192954.403000", "192955.343000", "192956.360000", "192957.359000", "192958.364000", "192959.355000", "193000.341000", "193001.352000", "193002.345000", "193003.353000", "193004.369000", "193005.387000", "193006.371000", "193007.354000", "193008.348000", "193009.380000", "193010.357000", "193011.339000", "193012.354000", "193013.355000", "193014.377000", "193015.370000", "193016.369000", "193017.346000", "193018.363000", "193019.353000", "193020.388000", "193021.346000", "193022.332000", "193023.389000", "193024.346000", "193025.341000", "193026.341000", "193027.354000", "193028.354000", "193029.361000", "193030.367000", "193031.332000", "193032.344000", "193033.393000", "193034.381000"],
      "InstanceNumber": [1, 2, 3, 4, 5, 6, 7, 8, 9, 10, 11, 12, 13, 14, 15, 16, 17, 18, 19, 20, 21, 22, 23, 24, 25, 26, 27, 28, 29, 30, 31, 32, 33, 34, 35, 36, 37, 38, 39, 40, 41, 42, 43, 44, 45, 46, 47, 48, 49, 50, 51, 52, 53, 54, 55, 56, 57, 58, 59, 60, 61, 62, 63, 64, 65, 66, 67, 68, 69, 70, 71, 72, 73, 74, 75, 76, 77, 78, 79, 80, 81, 82, 83, 84, 85, 86, 87, 88, 89, 90, 91, 92, 93, 94, 95, 96, 97, 98, 99, 100, 101, 102, 103, 104, 105, 106, 107, 108, 109, 110, 111, 112, 113, 114, 115, 116, 117, 118, 119, 120, 121, 122, 123, 124, 125, 126, 127, 128, 129, 130, 131, 132, 133, 134, 135, 136, 137, 138, 139, 140, 141, 142, 143, 144, 145, 146, 147, 148, 149, 150, 151, 152, 153, 154, 155, 156, 157, 158, 159, 160, 161, 162, 163, 164, 165, 166, 167, 168, 169, 170, 171, 172, 173, 174, 175, 176, 177, 178, 179, 180, 181, 182, 183, 184, 185, 186, 187, 188, 189, 190, 191, 192, 193, 194, 195, 196, 197, 198, 199, 200, 201, 202, 203, 204, 205, 206, 207, 208, 209, 210, 211, 212, 213, 214, 215, 216, 217, 218, 219, 220, 221, 222, 223, 224, 225, 226, 227, 228, 229, 230, 231, 232, 233, 234, 235, 236, 237, 238, 239, 240, 241, 242, 243, 244, 245, 246, 247, 248, 249, 250, 251, 252, 253, 254, 255, 256, 257, 258, 259, 260, 261, 262, 263, 264, 265, 266, 267, 268, 269, 270, 271, 272, 273, 274, 275, 276, 277, 278, 279, 280, 281, 282, 283, 284, 285, 286, 287, 288],
      "LargestImagePixelValue": [1403, 1251, 1007, 991, 950, 1306, 1196, 1074, 950, 766, 896, 1068, 1303, 1284, 1086, 855, 927, 1326, 1244, 1122, 767, 783, 805, 1433, 1154, 800, 1020, 790, 1261, 1174, 1029, 973, 1243, 1196, 963, 853, 802, 1351, 1113, 795, 810, 879, 1287, 1054, 816, 884, 1376, 1079, 802, 965, 1358, 1174, 828, 876, 818, 1309, 1011, 857, 1257, 1271, 1018, 802, 839, 1355, 1187, 866, 839, 887, 1301, 1091, 853, 800, 830, 1078, 1390, 1272, 1121, 993, 951, 1009, 1297, 1239, 909, 1079, 945, 1369, 1227, 1084, 889, 905, 722, 792, 1041, 1356, 1181, 841, 912, 987, 964, 972, 1327, 1309, 1236, 1176, 1025, 1072, 1033, 1302, 1369, 1240, 1127, 895, 888, 944, 1001, 944, 1349, 1364, 1232, 1162, 1040, 869, 868, 1122, 1240, 1137, 912, 886, 1377, 1258, 1101, 975, 931, 857, 1072, 1094, 1239, 1295, 1086, 970, 938, 938, 919, 1119, 1338, 1221, 1102, 862, 965, 883, 934, 969, 956, 1241, 1236, 1163, 890, 948, 924, 1020, 1350, 1320, 1190, 928, 929, 1042, 1093, 1136, 1339, 1183, 943, 896, 898, 830, 1179, 1382, 1173, 909, 937, 908, 1233, 1327, 1161, 1006, 1053, 951, 1353, 1380, 1191, 1039, 1038, 933, 977, 1262, 1319, 1275, 1202, 1076, 1032, 1055, 1060, 1344, 1118, 1029, 986, 1000, 923, 1393, 1197, 1087, 883, 891, 861, 1343, 1179, 894, 964, 964, 1292, 1328, 1077, 950, 993, 907, 1443, 1276, 1132, 855, 1003, 933, 982, 1198, 1295, 1144, 990, 892, 1282, 1197, 1081, 895, 938, 872, 971, 1310, 1291, 1141, 1067, 980, 1020, 1315, 1278, 1071, 1137, 1339, 1033, 846, 906, 822, 1059, 1251, 1067, 1251, 994, 952, 967, 1017, 1092, 909, 1354, 1331, 1266, 1175, 1035, 988, 851, 921, 1060, 884, 969, 1208, 1235, 1321, 1321, 1168, 1116, 1001, 1214, 1066],
      "WindowCenter": [382.0, 380.0, 378.0, 378.0, 378.0, 380.0, 379.0, 378.0, 378.0, 376.0, 377.0, 378.0, 380.0, 379.0, 378.0, 376.0, 376.0, 380.0, 379.0, 379.0, 376.0, 377.0, 377.0, 381.0, 379.0, 376.0, 377.0, 376.0, 379.0, 379.0, 378.0, 377.0, 378.0, 378.0, 376.0, 375.0, 375.0, 378.0, 377.0, 375.0, 375.0, 376.0, 378.0, 378.0, 376.0, 377.0, 379.0, 378.0, 375.0, 377.0, 379.0, 379.0, 376.0, 376.0, 377.0, 380.0, 378.0, 377.0, 379.0, 380.0, 378.0, 377.0, 377.0, 380.0, 380.0, 377.0, 376.0, 377.0, 380.0, 379.0, 377.0, 377.0, 378.0, 380.0, 381.0, 381.0, 379.0, 378.0, 378.0, 378.0, 380.0, 380.0, 377.0, 378.0, 377.0, 379.0, 378.0, 378.0, 376.0, 377.0, 375.0, 377.0, 378.0, 380.0, 379.0, 376.0, 376.0, 377.0, 377.0, 378.0, 380.0, 380.0, 380.0, 379.0, 379.0, 378.0, 378.0, 379.0, 380.0, 379.0, 379.0, 377.0, 377.0, 377.0, 378.0, 378.0, 380.0, 380.0, 379.0, 379.0, 378.0, 377.0, 378.0, 380.0, 380.0, 380.0, 378.0, 377.0, 380.0, 379.0, 379.0, 378.0, 379.0, 378.0, 379.0, 379.0, 379.0, 380.0, 378.0, 377.0, 378.0, 378.0, 378.0, 379.0, 380.0, 379.0, 378.0, 377.0, 377.0, 377.0, 378.0, 378.0, 378.0, 379.0, 380.0, 379.0, 377.0, 377.0, 378.0, 378.0, 380.0, 380.0, 379.0, 377.0, 377.0, 378.0, 379.0, 379.0, 380.0, 379.0, 378.0, 377.0, 377.0, 377.0, 379.0, 381.0, 379.0, 378.0, 378.0, 377.0, 380.0, 380.0, 379.0, 378.0, 378.0, 378.0, 380.0, 380.0, 379.0, 378.0, 377.0, 377.0, 377.0, 379.0, 380.0, 379.0, 379.0, 378.0, 377.0, 378.0, 378.0, 379.0, 378.0, 378.0, 377.0, 377.0, 377.0, 380.0, 379.0, 378.0, 377.0, 377.0, 377.0, 380.0, 379.0, 377.0, 378.0, 378.0, 379.0, 379.0, 378.0, 378.0, 378.0, 377.0, 380.0, 379.0, 378.0, 377.0, 377.0, 376.0, 377.0, 379.0, 379.0, 378.0, 377.0, 377.0, 379.0, 378.0, 377.0, 376.0, 377.0, 377.0, 378.0, 380.0, 381.0, 380.0, 379.0, 378.0, 378.0, 380.0, 381.0, 379.0, 379.0, 379.0, 377.0, 376.0, 376.0, 376.0, 378.0, 379.0, 378.0, 379.0, 378.0, 378.0, 377.0, 378.0, 379.0, 377.0, 380.0, 380.0, 380.0, 380.0, 378.0, 378.0, 377.0, 378.0, 378.0, 377.0, 378.0, 379.0, 379.0, 380.0, 380.0, 379.0, 379.0, 378.0, 380.0, 379.0],
      "WindowWidth": [812.0, 809.0, 806.0, 806.0, 805.0, 807.0, 806.0, 805.0, 804.0, 802.0, 803.0, 806.0, 807.0, 807.0, 805.0, 802.0, 802.0, 807.0, 805.0, 806.0, 802.0, 803.0, 804.0, 810.0, 806.0, 802.0, 803.0, 801.0, 807.0, 806.0, 804.0, 803.0, 805.0, 804.0, 801.0, 800.0, 799.0, 805.0, 803.0, 800.0, 800.0, 801.0, 805.0, 804.0, 801.0, 802.0, 806.0, 804.0, 800.0, 803.0, 807.0, 806.0, 801.0, 802.0, 803.0, 808.0, 805.0, 804.0, 806.0, 807.0, 805.0, 803.0, 803.0, 808.0, 807.0, 804.0, 802.0, 804.0, 808.0, 806.0, 804.0, 804.0, 805.0, 808.0, 810.0, 810.0, 807.0, 805.0, 805.0, 805.0, 808.0, 807.0, 803.0, 804.0, 802.0, 806.0, 805.0, 804.0, 802.0, 803.0, 801.0, 803.0, 805.0, 808.0, 806.0, 802.0, 802.0, 804.0, 803.0, 804.0, 807.0, 808.0, 807.0, 807.0, 806.0, 805.0, 804.0, 807.0, 808.0, 806.0, 806.0, 803.0, 803.0, 803.0, 805.0, 805.0, 808.0, 808.0, 807.0, 806.0, 806.0, 804.0, 805.0, 808.0, 809.0, 808.0, 805.0, 803.0, 808.0, 807.0, 806.0, 805.0, 806.0, 805.0, 806.0, 806.0, 807.0, 807.0, 805.0, 804.0, 804.0, 804.0, 804.0, 806.0, 808.0, 806.0, 806.0, 803.0, 803.0, 803.0, 804.0, 805.0, 805.0, 807.0, 807.0, 806.0, 803.0, 803.0, 805.0, 805.0, 808.0, 808.0, 807.0, 803.0, 803.0, 805.0, 806.0, 806.0, 808.0, 806.0, 804.0, 804.0, 804.0, 804.0, 807.0, 809.0, 807.0, 805.0, 805.0, 804.0, 808.0, 808.0, 806.0, 805.0, 805.0, 804.0, 807.0, 808.0, 805.0, 804.0, 804.0, 803.0, 804.0, 807.0, 808.0, 807.0, 805.0, 805.0, 803.0, 805.0, 805.0, 807.0, 805.0, 804.0, 803.0, 804.0, 803.0, 808.0, 806.0, 805.0, 804.0, 803.0, 804.0, 808.0, 806.0, 804.0, 804.0, 804.0, 807.0, 807.0, 805.0, 804.0, 804.0, 803.0, 807.0, 806.0, 805.0, 803.0, 803.0, 802.0, 803.0, 805.0, 807.0, 805.0, 803.0, 802.0, 806.0, 805.0, 803.0, 802.0, 803.0, 803.0, 805.0, 808.0, 809.0, 808.0, 807.0, 805.0, 805.0, 808.0, 810.0, 806.0, 807.0, 807.0, 804.0, 801.0, 802.0, 802.0, 805.0, 807.0, 805.0, 807.0, 804.0, 804.0, 804.0, 805.0, 806.0, 803.0, 807.0, 808.0, 807.0, 807.0, 805.0, 805.0, 804.0, 804.0, 805.0, 803.0, 805.0, 807.0, 806.0, 808.0, 808.0, 806.0, 806.0, 805.0, 807.0, 806.0]
    },
    "slices": {}
  }
}