{
  "AcquisitionMatrixPE": 96,
  "AcquisitionNumber": 1,
  "AcquisitionTime": "19:31:32.382500",
  "BandwidthPerPixelPhaseEncode": 18.939,
  "BaseResolution": 96,
  "BodyPartExamined": "BRAIN",
  "ConsistencyInfo": "N4_VE11C_LATEST_20160120",
  "ConversionSoftware": "dcm2niix",
  "ConversionSoftwareVersion": "v1.0.20170923 (OpenJPEG build) GCC6.3.0",
  "DerivedVendorReportedEchoSpacing": 0.000550011,
  "DeviceSerialNumber": "66112",
  "DwellTime": 2.2e-06,
  "EchoTime": 0.033,
  "EchoTrainLength": 96,
  "EffectiveEchoSpacing": 0.000550011,
  "FlipAngle": 59,
  "ImageType": [
    "ORIGINAL",
    "PRIMARY",
    "FMRI",
    "NONE",
    "ND",
    "NORM",
    "MOSAIC"
],
  "InstitutionAddress": "Maynard_3_Hanover_NH_US_03755",
  "InstitutionName": "Dartmouth_College_-_PBS",
  "MagneticFieldStrength": 3,
  "Manufacturer": "Siemens",
  "ManufacturersModelName": "Prisma",
  "Modality": "MR",
  "MultibandAccelerationFactor": 4,
  "PartialFourier": 1,
  "PercentPhaseFOV": 100,
  "PhaseEncodingDirection": "j-",
  "PhaseEncodingSteps": 96,
  "PhaseResolution": 1,
  "ProcedureStepDescription": "Gobbini_Matteo_1038_hyperface",
  "ProtocolName": "func_run-04_task-visualmemory",
  "PulseSequenceDetails": "%SiemensSeq%_ep2d_bold",
  "ReceiveCoilActiveElements": "HEA;HEP",
  "ReceiveCoilName": "Head_32",
  "ReconMatrixPE": 96,
  "RepetitionTime": 1,
  "ScanOptions": "FS",
  "ScanningSequence": "EP",
  "SequenceName": "_epfid2d1_96",
  "SequenceVariant": "SK",
  "SeriesDescription": "func_run-04_task-visualmemory",
  "SliceTiming": [0.735, 0, 0.49, 0.0825, 0.5725, 0.165, 0.655, 0.3275, 0.8175, 0.41, 0.9, 0.245, 0.735, 0, 0.49, 0.0825, 0.5725, 0.165, 0.655, 0.3275, 0.8175, 0.41, 0.9, 0.245, 0.735, 0, 0.49, 0.0825, 0.5725, 0.165, 0.655, 0.3275, 0.8175, 0.41, 0.9, 0.245, 0.735, 0, 0.49, 0.0825, 0.5725, 0.165, 0.655, 0.3275, 0.8175, 0.41, 0.9, 0.245],
  "SoftwareVersions": "syngo_MR_E11",
  "StationName": "AWP66112",
  "TotalReadoutTime": 0.0522511,
  "dcmmeta_affine": [
    [-2.4997775554656982, -0.033160194754600525, -0.0036022448912262917, 123.42800903320312],
    [-0.03314701467752457, 2.4997639656066895, -0.009022184647619724, -104.96260070800781],
    [-0.003721575951203704, 0.008973619900643826, 2.499981164932251, -70.30608367919922],
    [0.0, 0.0, 0.0, 1.0]
],
  "dcmmeta_reorient_transform": [
    [0.0, -1.0, 0.0, 95.0],
    [1.0, 0.0, 0.0, 0.0],
    [0.0, 0.0, 1.0, 0.0],
    [0.0, 0.0, 0.0, 1.0]
],
  "dcmmeta_shape": [96, 96, 48, 288],
  "dcmmeta_slice_dim": 2,
  "dcmmeta_version": 0.6,
  "global": {
    "const": {
      "AccessionNumber": "A001155",
      "AcquisitionMatrix": [96, 0, 0, 96],
      "AngioFlag": "N",
      "BitsAllocated": 16,
      "BitsStored": 12,
      "BodyPartExamined": "BRAIN",
      "Columns": 672,
      "EchoNumbers": 1,
      "EchoTime": 33.0,
      "EchoTrainLength": 96,
      "FlipAngle": 59.0,
      "HighBit": 11,
      "ImageOrientationPatient": [0.99991099005893, 0.01325880609414, -0.0014886303533, -0.0132640782678, 0.99990558558854, -0.0035894479457],
      "ImagePositionPatient": [-830.66356611711, -861.99333548104, -65.797371992466],
      "ImageType": [
        "ORIGINAL",
        "PRIMARY",
        "FMRI",
        "NONE",
        "ND",
        "NORM",
        "MOSAIC"
],
      "ImagedNucleus": "1H",
      "ImagingFrequency": 123.252317,
      "InPlanePhaseEncodingDirection": "COL",
      "MRAcquisitionType": "2D",
      "MagneticFieldStrength": 3.0,
      "Manufacturer": "SIEMENS",
      "ManufacturerModelName": "Prisma",
      "Modality": "MR",
      "NumberOfAverages": 1.0,
      "NumberOfPhaseEncodingSteps": 96,
      "PercentPhaseFieldOfView": 100.0,
      "PercentSampling": 100.0,
      "PerformedProcedureStepStartTime": "185608.983000",
      "PhotometricInterpretation": "MONOCHROME2",
      "PixelBandwidth": 2365.0,
      "PixelRepresentation": 0,
      "PixelSpacing": [2.5, 2.5],
      "PositionReferenceIndicator": "",
      "ProtocolName": "func_run-04_task-visualmemory",
      "RepetitionTime": 1000.0,
      "Rows": 672,
      "SAR": 0.04898006426264,
      "SamplesPerPixel": 1,
      "ScanOptions": "FS",
      "ScanningSequence": "EP",
      "SequenceName": "*epfid2d1_96",
      "SequenceVariant": "SK",
      "SeriesDescription": "func_run-04_task-visualmemory",
      "SeriesNumber": 28,
      "SeriesTime": "193133.332000",
      "SliceLocation": -70.10460182398,
      "SliceThickness": 2.5,
      "SmallestImagePixelValue": 0,
      "SoftwareVersions": "syngo MR E11",
      "SpacingBetweenSlices": 2.499999964113,
      "SpecificCharacterSet": "ISO_IR 100",
      "StudyID": "2",
      "StudyTime": "185608.929000",
      "TransmitCoilName": "Body",
      "VariableFlipAngleFlag": "N",
      "WindowCenterWidthExplanation": "Algo1",
      "dBdt": 0.0},
    "slices": {}
  },
  "time": {
    "samples": {
      "AcquisitionNumber": [1, 2, 3, 4, 5, 6, 7, 8, 9, 10, 11, 12, 13, 14, 15, 16, 17, 18, 19, 20, 21, 22, 23, 24, 25, 26, 27, 28, 29, 30, 31, 32, 33, 34, 35, 36, 37, 38, 39, 40, 41, 42, 43, 44, 45, 46, 47, 48, 49, 50, 51, 52, 53, 54, 55, 56, 57, 58, 59, 60, 61, 62, 63, 64, 65, 66, 67, 68, 69, 70, 71, 72, 73, 74, 75, 76, 77, 78, 79, 80, 81, 82, 83, 84, 85, 86, 87, 88, 89, 90, 91, 92, 93, 94, 95, 96, 97, 98, 99, 100, 101, 102, 103, 104, 105, 106, 107, 108, 109, 110, 111, 112, 113, 114, 115, 116, 117, 118, 119, 120, 121, 122, 123, 124, 125, 126, 127, 128, 129, 130, 131, 132, 133, 134, 135, 136, 137, 138, 139, 140, 141, 142, 143, 144, 145, 146, 147, 148, 149, 150, 151, 152, 153, 154, 155, 156, 157, 158, 159, 160, 161, 162, 163, 164, 165, 166, 167, 168, 169, 170, 171, 172, 173, 174, 175, 176, 177, 178, 179, 180, 181, 182, 183, 184, 185, 186, 187, 188, 189, 190, 191, 192, 193, 194, 195, 196, 197, 198, 199, 200, 201, 202, 203, 204, 205, 206, 207, 208, 209, 210, 211, 212, 213, 214, 215, 216, 217, 218, 219, 220, 221, 222, 223, 224, 225, 226, 227, 228, 229, 230, 231, 232, 233, 234, 235, 236, 237, 238, 239, 240, 241, 242, 243, 244, 245, 246, 247, 248, 249, 250, 251, 252, 253, 254, 255, 256, 257, 258, 259, 260, 261, 262, 263, 264, 265, 266, 267, 268, 269, 270, 271, 272, 273, 274, 275, 276, 277, 278, 279, 280, 281, 282, 283, 284, 285, 286, 287, 288],
      "AcquisitionTime": ["193132.382500", "193133.382500", "193134.382500", "193135.382500", "193136.382500", "193137.382500", "193138.382500", "193139.382500", "193140.382500", "193141.382500", "193142.382500", "193143.382500", "193144.382500", "193145.382500", "193146.382500", "193147.382500", "193148.382500", "193149.382500", "193150.382500", "193151.382500", "193152.382500", "193153.382500", "193154.382500", "193155.382500", "193156.382500", "193157.382500", "193158.382500", "193159.382500", "193200.382500", "193201.382500", "193202.382500", "193203.382500", "193204.382500", "193205.382500", "193206.382500", "193207.382500", "193208.382500", "193209.382500", "193210.382500", "193211.382500", "193212.382500", "193213.382500", "193214.382500", "193215.382500", "193216.382500", "193217.382500", "193218.382500", "193219.382500", "193220.382500", "193221.382500", "193222.382500", "193223.382500", "193224.382500", "193225.382500", "193226.382500", "193227.382500", "193228.382500", "193229.382500", "193230.382500", "193231.382500", "193232.382500", "193233.382500", "193234.382500", "193235.382500", "193236.382500", "193237.382500", "193238.382500", "193239.382500", "193240.382500", "193241.382500", "193242.382500", "193243.382500", "193244.382500", "193245.382500", "193246.382500", "193247.382500", "193248.382500", "193249.382500", "193250.382500", "193251.382500", "193252.382500", "193253.382500", "193254.382500", "193255.382500", "193256.382500", "193257.382500", "193258.382500", "193259.382500", "193300.382500", "193301.382500", "193302.382500", "193303.382500", "193304.382500", "193305.382500", "193306.382500", "193307.382500", "193308.382500", "193309.382500", "193310.382500", "193311.382500", "193312.382500", "193313.382500", "193314.382500", "193315.382500", "193316.382500", "193317.382500", "193318.382500", "193319.382500", "193320.382500", "193321.382500", "193322.382500", "193323.382500", "193324.382500", "193325.382500", "193326.382500", "193327.382500", "193328.382500", "193329.382500", "193330.382500", "193331.382500", "193332.382500", "193333.382500", "193334.382500", "193335.382500", "193336.382500", "193337.382500", "193338.382500", "193339.382500", "193340.382500", "193341.382500", "193342.382500", "193343.382500", "193344.382500", "193345.382500", "193346.382500", "193347.382500", "193348.382500", "193349.382500", "193350.382500", "193351.382500", "193352.382500", "193353.382500", "193354.382500", "193355.382500", "193356.382500", "193357.382500", "193358.382500", "193359.382500", "193400.382500", "193401.382500", "193402.382500", "193403.382500", "193404.382500", "193405.382500", "193406.382500", "193407.382500", "193408.382500", "193409.382500", "193410.382500", "193411.382500", "193412.382500", "193413.382500", "193414.382500", "193415.382500", "193416.382500", "193417.382500", "193418.382500", "193419.382500", "193420.382500", "193421.382500", "193422.382500", "193423.382500", "193424.382500", "193425.382500", "193426.382500", "193427.382500", "193428.382500", "193429.382500", "193430.382500", "193431.382500", "193432.382500", "193433.382500", "193434.382500", "193435.382500", "193436.382500", "193437.382500", "193438.382500", "193439.382500", "193440.382500", "193441.382500", "193442.382500", "193443.382500", "193444.382500", "193445.382500", "193446.382500", "193447.382500", "193448.382500", "193449.382500", "193450.382500", "193451.382500", "193452.382500", "193453.382500", "193454.382500", "193455.382500", "193456.382500", "193457.382500", "193458.382500", "193459.382500", "193500.382500", "193501.382500", "193502.382500", "193503.382500", "193504.382500", "193505.382500", "193506.382500", "193507.382500", "193508.382500", "193509.382500", "193510.382500", "193511.382500", "193512.382500", "193513.382500", "193514.382500", "193515.382500", "193516.382500", "193517.382500", "193518.382500", "193519.382500", "193520.382500", "193521.382500", "193522.382500", "193523.382500", "193524.382500", "193525.382500", "193526.382500", "193527.382500", "193528.382500", "193529.382500", "193530.382500", "193531.382500", "193532.382500", "193533.382500", "193534.382500", "193535.382500", "193536.382500", "193537.382500", "193538.382500", "193539.382500", "193540.382500", "193541.382500", "193542.382500", "193543.382500", "193544.382500", "193545.382500", "193546.382500", "193547.382500", "193548.382500", "193549.382500", "193550.382500", "193551.382500", "193552.382500", "193553.382500", "193554.382500", "193555.382500", "193556.382500", "193557.382500", "193558.382500", "193559.382500", "193600.382500", "193601.382500", "193602.382500", "193603.382500", "193604.382500", "193605.382500", "193606.382500", "193607.382500", "193608.382500", "193609.382500", "193610.382500", "193611.382500", "193612.382500", "193613.382500", "193614.382500", "193615.382500", "193616.382500", "193617.382500", "193618.382500", "193619.382500"],
      "ContentTime": ["193133.337000", "193134.215000", "193135.263000", "193136.259000", "193137.238000", "193138.230000", "193139.222000", "193140.216000", "193141.217000", "193142.258000", "193143.236000", "193144.258000", "193145.326000", "193146.245000", "193147.218000", "193148.223000", "193149.289000", "193150.242000", "193151.223000", "193152.228000", "193153.218000", "193154.191000", "193155.206000", "193156.224000", "193157.233000", "193158.221000", "193159.218000", "193200.201000", "193201.240000", "193202.219000", "193203.214000", "193204.229000", "193205.225000", "193206.224000", "193207.219000", "193208.251000", "193209.238000", "193210.245000", "193211.197000", "193212.215000", "193213.212000", "193214.251000", "193215.210000", "193216.246000", "193217.222000", "193218.237000", "193219.222000", "193220.242000", "193221.209000", "193222.264000", "193223.216000", "193224.236000", "193225.211000", "193226.227000", "193227.231000", "193228.207000", "193229.244000", "193230.204000", "193231.247000", "193232.221000", "193233.235000", "193234.264000", "193235.205000", "193236.223000", "193237.192000", "193238.212000", "193239.199000", "193240.280000", "193241.239000", "193242.236000", "193243.223000", "193244.225000", "193245.232000", "193246.223000", "193247.242000", "193248.229000", "193249.252000", "193250.221000", "193251.189000", "193252.221000", "193253.230000", "193254.213000", "193255.279000", "193256.238000", "193257.236000", "193258.219000", "193259.224000", "193300.234000", "193301.257000", "193302.220000", "193303.235000", "193304.178000", "193305.240000", "193306.207000", "193307.210000", "193308.184000", "193309.229000", "193310.218000", "193311.206000", "193312.211000", "193313.251000", "193314.250000", "193315.231000", "193316.229000", "193317.271000", "193318.196000", "193319.277000", "193320.254000", "193321.230000", "193322.233000", "193323.248000", "193324.266000", "193325.227000", "193326.253000", "193327.236000", "193328.203000", "193329.234000", "193330.224000", "193331.258000", "193332.235000", "193333.226000", "193334.230000", "193335.227000", "193336.228000", "193337.219000", "193338.224000", "193339.229000", "193340.238000", "193341.220000", "193342.199000", "193343.236000", "193344.246000", "193345.222000", "193346.223000", "193347.231000", "193348.217000", "193349.228000", "193350.237000", "193351.287000", "193352.223000", "193353.239000", "193354.255000", "193355.241000", "193356.223000", "193357.219000", "193358.219000", "193359.227000", "193400.285000", "193401.230000", "193402.212000", "193403.212000", "193404.207000", "193405.217000", "193406.270000", "193407.213000", "193408.232000", "193409.227000", "193410.225000", "193411.185000", "193412.226000", "193413.218000", "193414.275000", "193415.235000", "193416.211000", "193417.234000", "193418.230000", "193419.217000", "193420.210000", "193421.220000", "193422.224000", "193423.214000", "193424.247000", "193425.226000", "193426.243000", "193427.220000", "193428.227000", "193429.243000", "193430.227000", "193431.238000", "193432.229000", "193433.218000", "193434.306000", "193435.226000", "193436.237000", "193437.222000", "193438.236000", "193439.238000", "193440.235000", "193441.292000", "193442.267000", "193443.215000", "193444.221000", "193445.260000", "193446.238000", "193447.214000", "193448.211000", "193449.271000", "193450.242000", "193451.214000", "193452.228000", "193453.208000", "193454.252000", "193455.254000", "193456.194000", "193457.225000", "193458.248000", "193459.231000", "193500.220000", "193501.226000", "193502.200000", "193503.194000", "193504.230000", "193505.210000", "193506.220000", "193507.235000", "193508.235000", "193509.216000", "193510.222000", "193511.231000", "193512.243000", "193513.254000", "193514.214000", "193515.225000", "193516.252000", "193517.215000", "193518.272000", "193519.272000", "193520.256000", "193521.261000", "193522.223000", "193523.217000", "193524.226000", "193525.232000", "193526.222000", "193527.220000", "193528.217000", "193529.222000", "193530.205000", "193531.229000", "193532.212000", "193533.274000", "193534.226000", "193535.231000", "193536.224000", "193537.233000", "193538.243000", "193539.250000", "193540.215000", "193541.240000", "193542.229000", "193543.237000", "193544.210000", "193545.237000", "193546.217000", "193547.238000", "193548.234000", "193549.257000", "193550.220000", "193551.221000", "193552.266000", "193553.211000", "193554.204000", "193555.261000", "193556.235000", "193557.232000", "193558.199000", "193559.230000", "193600.212000", "193601.225000", "193602.223000", "193603.248000", "193604.241000", "193605.226000", "193606.211000", "193607.182000", "193608.244000", "193609.251000", "193610.222000", "193611.220000", "193612.256000", "193613.225000", "193614.220000", "193615.215000", "193616.223000", "193617.263000", "193618.212000", "193619.276000", "193620.240000"],
      "InstanceCreationTime": ["193133.337000", "193134.215000", "193135.263000", "193136.259000", "193137.238000", "193138.230000", "193139.222000", "193140.216000", "193141.217000", "193142.258000", "193143.236000", "193144.258000", "193145.326000", "193146.245000", "193147.218000", "193148.223000", "193149.289000", "193150.242000", "193151.223000", "193152.228000", "193153.218000", "193154.191000", "193155.206000", "193156.224000", "193157.233000", "193158.221000", "193159.218000", "193200.201000", "193201.240000", "193202.219000", "193203.214000", "193204.229000", "193205.225000", "193206.224000", "193207.219000", "193208.251000", "193209.238000", "193210.245000", "193211.197000", "193212.215000", "193213.212000", "193214.251000", "193215.210000", "193216.246000", "193217.222000", "193218.237000", "193219.222000", "193220.242000", "193221.209000", "193222.264000", "193223.216000", "193224.236000", "193225.211000", "193226.227000", "193227.231000", "193228.207000", "193229.244000", "193230.204000", "193231.247000", "193232.221000", "193233.235000", "193234.264000", "193235.205000", "193236.223000", "193237.192000", "193238.212000", "193239.199000", "193240.280000", "193241.239000", "193242.236000", "193243.223000", "193244.225000", "193245.232000", "193246.223000", "193247.242000", "193248.229000", "193249.252000", "193250.221000", "193251.189000", "193252.221000", "193253.230000", "193254.213000", "193255.279000", "193256.238000", "193257.236000", "193258.219000", "193259.224000", "193300.234000", "193301.257000", "193302.220000", "193303.235000", "193304.178000", "193305.240000", "193306.207000", "193307.210000", "193308.184000", "193309.229000", "193310.218000", "193311.206000", "193312.211000", "193313.251000", "193314.250000", "193315.231000", "193316.229000", "193317.271000", "193318.196000", "193319.277000", "193320.254000", "193321.230000", "193322.233000", "193323.248000", "193324.266000", "193325.227000", "193326.253000", "193327.236000", "193328.203000", "193329.234000", "193330.224000", "193331.258000", "193332.235000", "193333.226000", "193334.230000", "193335.227000", "193336.228000", "193337.219000", "193338.224000", "193339.229000", "193340.238000", "193341.220000", "193342.199000", "193343.236000", "193344.246000", "193345.222000", "193346.223000", "193347.231000", "193348.217000", "193349.228000", "193350.237000", "193351.287000", "193352.223000", "193353.239000", "193354.255000", "193355.241000", "193356.223000", "193357.219000", "193358.219000", "193359.227000", "193400.285000", "193401.230000", "193402.212000", "193403.212000", "193404.207000", "193405.217000", "193406.270000", "193407.213000", "193408.232000", "193409.227000", "193410.225000", "193411.185000", "193412.226000", "193413.218000", "193414.275000", "193415.235000", "193416.211000", "193417.234000", "193418.230000", "193419.217000", "193420.210000", "193421.220000", "193422.224000", "193423.214000", "193424.247000", "193425.226000", "193426.243000", "193427.220000", "193428.227000", "193429.243000", "193430.227000", "193431.238000", "193432.229000", "193433.218000", "193434.306000", "193435.226000", "193436.237000", "193437.222000", "193438.236000", "193439.238000", "193440.235000", "193441.292000", "193442.267000", "193443.215000", "193444.221000", "193445.260000", "193446.238000", "193447.214000", "193448.211000", "193449.271000", "193450.242000", "193451.214000", "193452.228000", "193453.208000", "193454.252000", "193455.254000", "193456.194000", "193457.225000", "193458.248000", "193459.231000", "193500.220000", "193501.226000", "193502.200000", "193503.194000", "193504.230000", "193505.210000", "193506.220000", "193507.235000", "193508.235000", "193509.216000", "193510.222000", "193511.231000", "193512.243000", "193513.254000", "193514.214000", "193515.225000", "193516.252000", "193517.215000", "193518.272000", "193519.272000", "193520.256000", "193521.261000", "193522.223000", "193523.217000", "193524.226000", "193525.232000", "193526.222000", "193527.220000", "193528.217000", "193529.222000", "193530.205000", "193531.229000", "193532.212000", "193533.274000", "193534.226000", "193535.231000", "193536.224000", "193537.233000", "193538.243000", "193539.250000", "193540.215000", "193541.240000", "193542.229000", "193543.237000", "193544.210000", "193545.237000", "193546.217000", "193547.238000", "193548.234000", "193549.257000", "193550.220000", "193551.221000", "193552.266000", "193553.211000", "193554.204000", "193555.261000", "193556.235000", "193557.232000", "193558.199000", "193559.230000", "193600.212000", "193601.225000", "193602.223000", "193603.248000", "193604.241000", "193605.226000", "193606.211000", "193607.182000", "193608.244000", "193609.251000", "193610.222000", "193611.220000", "193612.256000", "193613.225000", "193614.220000", "193615.215000", "193616.223000", "193617.263000", "193618.212000", "193619.276000", "193620.240000"],
      "InstanceNumber": [1, 2, 3, 4, 5, 6, 7, 8, 9, 10, 11, 12, 13, 14, 15, 16, 17, 18, 19, 20, 21, 22, 23, 24, 25, 26, 27, 28, 29, 30, 31, 32, 33, 34, 35, 36, 37, 38, 39, 40, 41, 42, 43, 44, 45, 46, 47, 48, 49, 50, 51, 52, 53, 54, 55, 56, 57, 58, 59, 60, 61, 62, 63, 64, 65, 66, 67, 68, 69, 70, 71, 72, 73, 74, 75, 76, 77, 78, 79, 80, 81, 82, 83, 84, 85, 86, 87, 88, 89, 90, 91, 92, 93, 94, 95, 96, 97, 98, 99, 100, 101, 102, 103, 104, 105, 106, 107, 108, 109, 110, 111, 112, 113, 114, 115, 116, 117, 118, 119, 120, 121, 122, 123, 124, 125, 126, 127, 128, 129, 130, 131, 132, 133, 134, 135, 136, 137, 138, 139, 140, 141, 142, 143, 144, 145, 146, 147, 148, 149, 150, 151, 152, 153, 154, 155, 156, 157, 158, 159, 160, 161, 162, 163, 164, 165, 166, 167, 168, 169, 170, 171, 172, 173, 174, 175, 176, 177, 178, 179, 180, 181, 182, 183, 184, 185, 186, 187, 188, 189, 190, 191, 192, 193, 194, 195, 196, 197, 198, 199, 200, 201, 202, 203, 204, 205, 206, 207, 208, 209, 210, 211, 212, 213, 214, 215, 216, 217, 218, 219, 220, 221, 222, 223, 224, 225, 226, 227, 228, 229, 230, 231, 232, 233, 234, 235, 236, 237, 238, 239, 240, 241, 242, 243, 244, 245, 246, 247, 248, 249, 250, 251, 252, 253, 254, 255, 256, 257, 258, 259, 260, 261, 262, 263, 264, 265, 266, 267, 268, 269, 270, 271, 272, 273, 274, 275, 276, 277, 278, 279, 280, 281, 282, 283, 284, 285, 286, 287, 288],
      "LargestImagePixelValue": [1086, 1117, 1393, 1212, 1197, 1130, 970, 1014, 1135, 822, 971, 1353, 1108, 849, 983, 1210, 1298, 1169, 1008, 815, 872, 864, 849, 888, 932, 1367, 1371, 1248, 1130, 856, 886, 807, 905, 885, 911, 959, 1024, 1169, 1070, 1340, 1239, 970, 880, 821, 918, 767, 940, 1210, 1214, 1094, 894, 893, 849, 1041, 1357, 1311, 1029, 1007, 970, 1014, 1370, 1284, 1036, 984, 911, 946, 1319, 1200, 1248, 1058, 1051, 1345, 1186, 892, 921, 897, 1122, 1385, 1211, 1078, 910, 967, 996, 1351, 1119, 1078, 785, 859, 785, 1341, 1213, 799, 868, 1086, 1000, 1250, 994, 991, 1387, 1056, 822, 829, 1110, 1333, 1156, 900, 878, 807, 1418, 1311, 977, 873, 956, 1101, 1355, 1232, 913, 845, 870, 1104, 1277, 1244, 893, 881, 872, 1333, 1208, 827, 992, 1241, 1287, 964, 862, 881, 1373, 1195, 822, 914, 983, 1275, 924, 1049, 925, 1238, 1273, 1150, 1105, 964, 929, 853, 1150, 1335, 1273, 1205, 1078, 928, 897, 991, 1303, 1345, 1033, 900, 1007, 1056, 1320, 1276, 1051, 857, 873, 955, 875, 955, 1294, 1293, 1208, 943, 1067, 954, 1203, 1423, 1257, 1172, 974, 934, 891, 1016, 914, 1346, 1250, 1111, 1005, 958, 999, 1207, 1373, 1181, 993, 949, 987, 1303, 1319, 1017, 888, 856, 926, 1100, 1314, 1043, 828, 967, 1386, 1250, 893, 827, 850, 1046, 1134, 1315, 1194, 955, 886, 1104, 1277, 1243, 956, 900, 862, 980, 1291, 1344, 1204, 868, 850, 979, 1069, 1365, 1198, 868, 897, 873, 1258, 1332, 1165, 838, 857, 903, 1387, 1262, 1076, 870, 1010, 837, 1403, 1152, 975, 956, 1288, 1211, 1085, 851, 955, 801, 1408, 1116, 900, 829, 1105, 1303, 1225, 1015, 852, 836, 963, 809, 1096, 1300, 1344, 1106, 1107, 1075, 1065, 1315, 1300, 1263, 1042, 1025, 951, 955],
      "WindowCenter": [382.0, 381.0, 382.0, 380.0, 380.0, 380.0, 378.0, 379.0, 379.0, 377.0, 378.0, 381.0, 379.0, 377.0, 378.0, 379.0, 380.0, 379.0, 378.0, 377.0, 378.0, 377.0, 377.0, 378.0, 378.0, 381.0, 380.0, 380.0, 379.0, 377.0, 377.0, 377.0, 377.0, 377.0, 378.0, 379.0, 380.0, 381.0, 379.0, 380.0, 379.0, 377.0, 376.0, 376.0, 378.0, 377.0, 379.0, 381.0, 381.0, 381.0, 380.0, 380.0, 379.0, 380.0, 382.0, 381.0, 379.0, 378.0, 378.0, 378.0, 380.0, 379.0, 378.0, 377.0, 377.0, 377.0, 380.0, 380.0, 380.0, 379.0, 379.0, 380.0, 379.0, 377.0, 377.0, 377.0, 379.0, 379.0, 378.0, 378.0, 377.0, 377.0, 377.0, 379.0, 378.0, 378.0, 376.0, 377.0, 377.0, 381.0, 379.0, 377.0, 377.0, 379.0, 379.0, 381.0, 379.0, 378.0, 380.0, 378.0, 377.0, 377.0, 379.0, 380.0, 379.0, 378.0, 377.0, 377.0, 381.0, 380.0, 378.0, 377.0, 378.0, 379.0, 380.0, 379.0, 376.0, 376.0, 376.0, 378.0, 379.0, 380.0, 377.0, 377.0, 377.0, 380.0, 379.0, 377.0, 378.0, 380.0, 379.0, 377.0, 377.0, 377.0, 380.0, 380.0, 376.0, 377.0, 378.0, 380.0, 378.0, 378.0, 376.0, 379.0, 379.0, 378.0, 379.0, 378.0, 377.0, 378.0, 379.0, 380.0, 380.0, 380.0, 378.0, 377.0, 377.0, 378.0, 380.0, 380.0, 378.0, 377.0, 378.0, 379.0, 379.0, 380.0, 378.0, 378.0, 378.0, 379.0, 378.0, 379.0, 380.0, 380.0, 380.0, 378.0, 378.0, 377.0, 379.0, 380.0, 379.0, 379.0, 378.0, 378.0, 378.0, 378.0, 378.0, 380.0, 380.0, 379.0, 378.0, 378.0, 377.0, 379.0, 380.0, 379.0, 378.0, 377.0, 377.0, 379.0, 379.0, 378.0, 376.0, 377.0, 377.0, 379.0, 380.0, 378.0, 376.0, 378.0, 380.0, 379.0, 377.0, 377.0, 377.0, 379.0, 380.0, 381.0, 380.0, 378.0, 377.0, 379.0, 379.0, 379.0, 378.0, 377.0, 377.0, 378.0, 379.0, 380.0, 379.0, 377.0, 377.0, 377.0, 378.0, 379.0, 379.0, 377.0, 377.0, 377.0, 380.0, 380.0, 379.0, 377.0, 377.0, 378.0, 381.0, 380.0, 379.0, 377.0, 379.0, 377.0, 381.0, 380.0, 378.0, 378.0, 380.0, 379.0, 378.0, 377.0, 378.0, 377.0, 381.0, 379.0, 378.0, 377.0, 379.0, 379.0, 380.0, 378.0, 378.0, 377.0, 379.0, 377.0, 380.0, 381.0, 382.0, 380.0, 379.0, 379.0, 379.0, 380.0, 379.0, 379.0, 378.0, 378.0, 378.0, 378.0],
      "WindowWidth": [812.0, 810.0, 811.0, 809.0, 809.0, 808.0, 805.0, 805.0, 806.0, 803.0, 805.0, 809.0, 806.0, 803.0, 804.0, 806.0, 807.0, 806.0, 805.0, 803.0, 804.0, 804.0, 804.0, 805.0, 805.0, 809.0, 809.0, 807.0, 806.0, 804.0, 804.0, 803.0, 804.0, 804.0, 805.0, 806.0, 808.0, 809.0, 806.0, 807.0, 806.0, 804.0, 802.0, 802.0, 805.0, 803.0, 806.0, 810.0, 810.0, 809.0, 808.0, 808.0, 807.0, 809.0, 811.0, 810.0, 806.0, 805.0, 804.0, 805.0, 808.0, 807.0, 805.0, 804.0, 803.0, 803.0, 808.0, 807.0, 809.0, 807.0, 806.0, 808.0, 807.0, 803.0, 803.0, 803.0, 806.0, 807.0, 805.0, 805.0, 803.0, 803.0, 803.0, 807.0, 805.0, 805.0, 802.0, 804.0, 803.0, 810.0, 807.0, 804.0, 804.0, 806.0, 806.0, 810.0, 806.0, 806.0, 809.0, 805.0, 803.0, 803.0, 806.0, 808.0, 806.0, 804.0, 804.0, 804.0, 809.0, 808.0, 805.0, 804.0, 805.0, 807.0, 808.0, 807.0, 802.0, 801.0, 802.0, 805.0, 807.0, 808.0, 804.0, 804.0, 804.0, 808.0, 807.0, 803.0, 805.0, 807.0, 807.0, 804.0, 802.0, 803.0, 808.0, 807.0, 803.0, 804.0, 805.0, 808.0, 804.0, 804.0, 802.0, 806.0, 806.0, 805.0, 806.0, 804.0, 803.0, 804.0, 806.0, 807.0, 807.0, 807.0, 805.0, 804.0, 803.0, 804.0, 808.0, 808.0, 805.0, 802.0, 804.0, 806.0, 807.0, 808.0, 805.0, 805.0, 805.0, 806.0, 805.0, 806.0, 809.0, 808.0, 808.0, 805.0, 805.0, 804.0, 806.0, 808.0, 806.0, 806.0, 805.0, 805.0, 805.0, 806.0, 805.0, 809.0, 808.0, 807.0, 805.0, 805.0, 804.0, 806.0, 808.0, 806.0, 804.0, 803.0, 803.0, 807.0, 806.0, 804.0, 802.0, 803.0, 804.0, 806.0, 808.0, 805.0, 802.0, 805.0, 808.0, 807.0, 804.0, 803.0, 804.0, 806.0, 807.0, 810.0, 809.0, 805.0, 804.0, 806.0, 807.0, 807.0, 804.0, 804.0, 804.0, 805.0, 807.0, 808.0, 806.0, 803.0, 802.0, 803.0, 804.0, 806.0, 806.0, 803.0, 803.0, 804.0, 807.0, 808.0, 807.0, 804.0, 804.0, 805.0, 809.0, 807.0, 806.0, 804.0, 806.0, 804.0, 811.0, 808.0, 804.0, 804.0, 807.0, 806.0, 805.0, 804.0, 804.0, 803.0, 810.0, 807.0, 805.0, 804.0, 807.0, 807.0, 808.0, 805.0, 805.0, 804.0, 806.0, 803.0, 808.0, 810.0, 810.0, 808.0, 807.0, 806.0, 806.0, 807.0, 806.0, 806.0, 804.0, 804.0, 805.0, 805.0]
    },
    "slices": {}
  }
}