{
  "AcquisitionMatrixPE": 96,
  "AcquisitionNumber": 1,
  "AcquisitionTime": "19:53:1.100000",
  "BandwidthPerPixelPhaseEncode": 18.939,
  "BaseResolution": 96,
  "BodyPartExamined": "BRAIN",
  "ConsistencyInfo": "N4_VE11C_LATEST_20160120",
  "ConversionSoftware": "dcm2niix",
  "ConversionSoftwareVersion": "v1.0.20170923 (OpenJPEG build) GCC6.3.0",
  "DerivedVendorReportedEchoSpacing": 0.000550011,
  "DeviceSerialNumber": "66112",
  "DwellTime": 2.2e-06,
  "EchoTime": 0.033,
  "EchoTrainLength": 96,
  "EffectiveEchoSpacing": 0.000550011,
  "FlipAngle": 59,
  "ImageType": [
    "ORIGINAL",
    "PRIMARY",
    "FMRI",
    "NONE",
    "ND",
    "NORM",
    "MOSAIC"
  ],
  "InstitutionAddress": "Maynard_3_Hanover_NH_US_03755",
  "InstitutionName": "Dartmouth_College_-_PBS",
  "MagneticFieldStrength": 3,
  "Manufacturer": "Siemens",
  "ManufacturersModelName": "Prisma",
  "Modality": "MR",
  "MultibandAccelerationFactor": 4,
  "PercentPhaseFOV": 100,
  "PhaseEncodingDirection": "j-",
  "PhaseEncodingSteps": 96,
  "PhaseResolution": 1,
  "ProcedureStepDescription": "Gobbini_Matteo_1038_hyperface",
  "ProtocolName": "func_run-08_task-visualmemory",
  "PulseSequenceDetails": "%SiemensSeq%_ep2d_bold",
  "ReceiveCoilActiveElements": "HEA;HEP",
  "ReceiveCoilName": "Head_32",
  "ReconMatrixPE": 96,
  "RepetitionTime": 1,
  "ScanOptions": "FS",
  "ScanningSequence": "EP",
  "SequenceName": "_epfid2d1_96",
  "SequenceVariant": "SK",
  "SeriesDescription": "func_run-08_task-visualmemory",
  "SliceTiming": [
    0.735,
    0,
    0.49,
    0.08,
    0.57,
    0.1625,
    0.6525,
    0.325,
    0.815,
    0.4075,
    0.8975,
    0.245,
    0.735,
    0,
    0.49,
    0.08,
    0.57,
    0.1625,
    0.6525,
    0.325,
    0.815,
    0.4075,
    0.8975,
    0.245,
    0.735,
    0,
    0.49,
    0.08,
    0.57,
    0.1625,
    0.6525,
    0.325,
    0.815,
    0.4075,
    0.8975,
    0.245,
    0.735,
    0,
    0.49,
    0.08,
    0.57,
    0.1625,
    0.6525,
    0.325,
    0.815,
    0.4075,
    0.8975,
    0.245
  ],
  "SoftwareVersions": "syngo_MR_E11",
  "StationName": "AWP66112",
  "TotalReadoutTime": 0.0522511,
  "dcmmeta_affine": [
    [
      -2.4997775554656982,
      -0.033160194754600525,
      -0.0036022448912262917,
      123.42800903320312
    ],
    [
      -0.03314701467752457,
      2.4997639656066895,
      -0.009022184647619724,
      -104.96260070800781
    ],
    [
      -0.003721575951203704,
      0.008973619900643826,
      2.499981164932251,
      -70.30608367919922
    ],
    [
      0.0,
      0.0,
      0.0,
      1.0
    ]
  ],
  "dcmmeta_reorient_transform": [
    [
      0.0,
      -1.0,
      0.0,
      95.0
    ],
    [
      1.0,
      0.0,
      0.0,
      0.0
    ],
    [
      0.0,
      0.0,
      1.0,
      0.0
    ],
    [
      0.0,
      0.0,
      0.0,
      1.0
    ]
  ],
  "dcmmeta_shape": [
    96,
    96,
    48,
    288
  ],
  "dcmmeta_slice_dim": 2,
  "dcmmeta_version": 0.6,
  "global": {
    "const": {
      "AccessionNumber": "A001155",
      "AcquisitionMatrix": [
        96,
        0,
        0,
        96
      ],
      "AngioFlag": "N",
      "BitsAllocated": 16,
      "BitsStored": 12,
      "BodyPartExamined": "BRAIN",
      "Columns": 672,
      "EchoNumbers": 1,
      "EchoTime": 33.0,
      "EchoTrainLength": 96,
      "FlipAngle": 59.0,
      "HighBit": 11,
      "ImageOrientationPatient": [
        0.99991099005893,
        0.01325880609414,
        -0.0014886303533,
        -0.0132640782678,
        0.99990558558854,
        -0.0035894479457
      ],
      "ImagePositionPatient": [
        -830.66356611711,
        -861.99333548104,
        -65.797371992466
      ],
      "ImageType": [
        "ORIGINAL",
        "PRIMARY",
        "FMRI",
        "NONE",
        "ND",
        "NORM",
        "MOSAIC"
      ],
      "ImagedNucleus": "1H",
      "ImagingFrequency": 123.252323,
      "InPlanePhaseEncodingDirection": "COL",
      "MRAcquisitionType": "2D",
      "MagneticFieldStrength": 3.0,
      "Manufacturer": "SIEMENS",
      "ManufacturerModelName": "Prisma",
      "Modality": "MR",
      "NumberOfAverages": 1.0,
      "NumberOfPhaseEncodingSteps": 96,
      "PercentPhaseFieldOfView": 100.0,
      "PercentSampling": 100.0,
      "PerformedProcedureStepStartTime": "185608.983000",
      "PhotometricInterpretation": "MONOCHROME2",
      "PixelBandwidth": 2365.0,
      "PixelRepresentation": 0,
      "PixelSpacing": [
        2.5,
        2.5
      ],
      "PositionReferenceIndicator": "",
      "ProtocolName": "func_run-08_task-visualmemory",
      "RepetitionTime": 1000.0,
      "Rows": 672,
      "SAR": 0.04898006426264,
      "SamplesPerPixel": 1,
      "ScanOptions": "FS",
      "ScanningSequence": "EP",
      "SequenceName": "*epfid2d1_96",
      "SequenceVariant": "SK",
      "SeriesDescription": "func_run-08_task-visualmemory",
      "SeriesNumber": 56,
      "SeriesTime": "195302.715000",
      "SliceLocation": -70.10460182398,
      "SliceThickness": 2.5,
      "SmallestImagePixelValue": 0,
      "SoftwareVersions": "syngo MR E11",
      "SpacingBetweenSlices": 2.499999964113,
      "SpecificCharacterSet": "ISO_IR 100",
      "StudyID": "2",
      "StudyTime": "185608.929000",
      "TransmitCoilName": "Body",
      "VariableFlipAngleFlag": "N",
      "WindowCenterWidthExplanation": "Algo1",
      "dBdt": 0.0
    },
    "slices": {}
  },
  "time": {
    "samples": {
      "AcquisitionNumber": [
        1,
        2,
        3,
        4,
        5,
        6,
        7,
        8,
        9,
        10,
        11,
        12,
        13,
        14,
        15,
        16,
        17,
        18,
        19,
        20,
        21,
        22,
        23,
        24,
        25,
        26,
        27,
        28,
        29,
        30,
        31,
        32,
        33,
        34,
        35,
        36,
        37,
        38,
        39,
        40,
        41,
        42,
        43,
        44,
        45,
        46,
        47,
        48,
        49,
        50,
        51,
        52,
        53,
        54,
        55,
        56,
        57,
        58,
        59,
        60,
        61,
        62,
        63,
        64,
        65,
        66,
        67,
        68,
        69,
        70,
        71,
        72,
        73,
        74,
        75,
        76,
        77,
        78,
        79,
        80,
        81,
        82,
        83,
        84,
        85,
        86,
        87,
        88,
        89,
        90,
        91,
        92,
        93,
        94,
        95,
        96,
        97,
        98,
        99,
        100,
        101,
        102,
        103,
        104,
        105,
        106,
        107,
        108,
        109,
        110,
        111,
        112,
        113,
        114,
        115,
        116,
        117,
        118,
        119,
        120,
        121,
        122,
        123,
        124,
        125,
        126,
        127,
        128,
        129,
        130,
        131,
        132,
        133,
        134,
        135,
        136,
        137,
        138,
        139,
        140,
        141,
        142,
        143,
        144,
        145,
        146,
        147,
        148,
        149,
        150,
        151,
        152,
        153,
        154,
        155,
        156,
        157,
        158,
        159,
        160,
        161,
        162,
        163,
        164,
        165,
        166,
        167,
        168,
        169,
        170,
        171,
        172,
        173,
        174,
        175,
        176,
        177,
        178,
        179,
        180,
        181,
        182,
        183,
        184,
        185,
        186,
        187,
        188,
        189,
        190,
        191,
        192,
        193,
        194,
        195,
        196,
        197,
        198,
        199,
        200,
        201,
        202,
        203,
        204,
        205,
        206,
        207,
        208,
        209,
        210,
        211,
        212,
        213,
        214,
        215,
        216,
        217,
        218,
        219,
        220,
        221,
        222,
        223,
        224,
        225,
        226,
        227,
        228,
        229,
        230,
        231,
        232,
        233,
        234,
        235,
        236,
        237,
        238,
        239,
        240,
        241,
        242,
        243,
        244,
        245,
        246,
        247,
        248,
        249,
        250,
        251,
        252,
        253,
        254,
        255,
        256,
        257,
        258,
        259,
        260,
        261,
        262,
        263,
        264,
        265,
        266,
        267,
        268,
        269,
        270,
        271,
        272,
        273,
        274,
        275,
        276,
        277,
        278,
        279,
        280,
        281,
        282,
        283,
        284,
        285,
        286,
        287,
        288
      ],
      "AcquisitionTime": [
        "195301.100000",
        "195302.100000",
        "195303.100000",
        "195304.100000",
        "195305.100000",
        "195306.100000",
        "195307.100000",
        "195308.100000",
        "195309.100000",
        "195310.100000",
        "195311.100000",
        "195312.100000",
        "195313.100000",
        "195314.100000",
        "195315.100000",
        "195316.100000",
        "195317.100000",
        "195318.100000",
        "195319.100000",
        "195320.100000",
        "195321.100000",
        "195322.100000",
        "195323.100000",
        "195324.100000",
        "195325.100000",
        "195326.100000",
        "195327.100000",
        "195328.100000",
        "195329.100000",
        "195330.100000",
        "195331.100000",
        "195332.100000",
        "195333.100000",
        "195334.100000",
        "195335.100000",
        "195336.100000",
        "195337.100000",
        "195338.100000",
        "195339.100000",
        "195340.100000",
        "195341.100000",
        "195342.100000",
        "195343.100000",
        "195344.100000",
        "195345.100000",
        "195346.100000",
        "195347.100000",
        "195348.100000",
        "195349.100000",
        "195350.100000",
        "195351.100000",
        "195352.100000",
        "195353.100000",
        "195354.100000",
        "195355.100000",
        "195356.100000",
        "195357.100000",
        "195358.100000",
        "195359.100000",
        "195400.100000",
        "195401.100000",
        "195402.100000",
        "195403.100000",
        "195404.100000",
        "195405.100000",
        "195406.100000",
        "195407.100000",
        "195408.100000",
        "195409.100000",
        "195410.100000",
        "195411.100000",
        "195412.100000",
        "195413.100000",
        "195414.100000",
        "195415.100000",
        "195416.100000",
        "195417.100000",
        "195418.100000",
        "195419.100000",
        "195420.100000",
        "195421.100000",
        "195422.100000",
        "195423.100000",
        "195424.100000",
        "195425.100000",
        "195426.100000",
        "195427.100000",
        "195428.100000",
        "195429.100000",
        "195430.100000",
        "195431.100000",
        "195432.100000",
        "195433.100000",
        "195434.100000",
        "195435.100000",
        "195436.100000",
        "195437.100000",
        "195438.100000",
        "195439.100000",
        "195440.100000",
        "195441.100000",
        "195442.100000",
        "195443.100000",
        "195444.100000",
        "195445.100000",
        "195446.100000",
        "195447.100000",
        "195448.100000",
        "195449.100000",
        "195450.100000",
        "195451.100000",
        "195452.100000",
        "195453.100000",
        "195454.100000",
        "195455.100000",
        "195456.100000",
        "195457.100000",
        "195458.100000",
        "195459.100000",
        "195500.100000",
        "195501.100000",
        "195502.100000",
        "195503.100000",
        "195504.100000",
        "195505.100000",
        "195506.100000",
        "195507.100000",
        "195508.100000",
        "195509.100000",
        "195510.100000",
        "195511.100000",
        "195512.100000",
        "195513.100000",
        "195514.100000",
        "195515.100000",
        "195516.100000",
        "195517.100000",
        "195518.100000",
        "195519.100000",
        "195520.100000",
        "195521.100000",
        "195522.100000",
        "195523.100000",
        "195524.100000",
        "195525.100000",
        "195526.100000",
        "195527.100000",
        "195528.100000",
        "195529.100000",
        "195530.100000",
        "195531.100000",
        "195532.100000",
        "195533.100000",
        "195534.100000",
        "195535.100000",
        "195536.100000",
        "195537.100000",
        "195538.100000",
        "195539.100000",
        "195540.100000",
        "195541.100000",
        "195542.100000",
        "195543.100000",
        "195544.100000",
        "195545.100000",
        "195546.100000",
        "195547.100000",
        "195548.100000",
        "195549.100000",
        "195550.100000",
        "195551.100000",
        "195552.100000",
        "195553.100000",
        "195554.100000",
        "195555.100000",
        "195556.100000",
        "195557.100000",
        "195558.100000",
        "195559.100000",
        "195600.100000",
        "195601.100000",
        "195602.100000",
        "195603.100000",
        "195604.100000",
        "195605.100000",
        "195606.100000",
        "195607.100000",
        "195608.100000",
        "195609.100000",
        "195610.100000",
        "195611.100000",
        "195612.100000",
        "195613.100000",
        "195614.100000",
        "195615.100000",
        "195616.100000",
        "195617.100000",
        "195618.100000",
        "195619.100000",
        "195620.100000",
        "195621.100000",
        "195622.100000",
        "195623.100000",
        "195624.100000",
        "195625.100000",
        "195626.100000",
        "195627.100000",
        "195628.100000",
        "195629.100000",
        "195630.100000",
        "195631.100000",
        "195632.100000",
        "195633.100000",
        "195634.100000",
        "195635.100000",
        "195636.100000",
        "195637.100000",
        "195638.100000",
        "195639.100000",
        "195640.100000",
        "195641.100000",
        "195642.100000",
        "195643.100000",
        "195644.100000",
        "195645.100000",
        "195646.100000",
        "195647.100000",
        "195648.100000",
        "195649.100000",
        "195650.100000",
        "195651.100000",
        "195652.100000",
        "195653.100000",
        "195654.100000",
        "195655.100000",
        "195656.100000",
        "195657.100000",
        "195658.100000",
        "195659.100000",
        "195700.100000",
        "195701.100000",
        "195702.100000",
        "195703.100000",
        "195704.100000",
        "195705.100000",
        "195706.100000",
        "195707.100000",
        "195708.100000",
        "195709.100000",
        "195710.100000",
        "195711.100000",
        "195712.100000",
        "195713.100000",
        "195714.100000",
        "195715.100000",
        "195716.100000",
        "195717.100000",
        "195718.100000",
        "195719.100000",
        "195720.100000",
        "195721.100000",
        "195722.100000",
        "195723.100000",
        "195724.100000",
        "195725.100000",
        "195726.100000",
        "195727.100000",
        "195728.100000",
        "195729.100000",
        "195730.100000",
        "195731.100000",
        "195732.100000",
        "195733.100000",
        "195734.100000",
        "195735.100000",
        "195736.100000",
        "195737.100000",
        "195738.100000",
        "195739.100000",
        "195740.100000",
        "195741.100000",
        "195742.100000",
        "195743.100000",
        "195744.100000",
        "195745.100000",
        "195746.100000",
        "195747.100000",
        "195748.100000"
      ],
      "ContentTime": [
        "195302.719000",
        "195303.601000",
        "195304.602000",
        "195305.580000",
        "195306.579000",
        "195307.613000",
        "195308.586000",
        "195309.590000",
        "195310.597000",
        "195311.596000",
        "195312.559000",
        "195313.568000",
        "195314.609000",
        "195315.585000",
        "195316.614000",
        "195317.574000",
        "195318.555000",
        "195319.602000",
        "195320.577000",
        "195321.551000",
        "195322.597000",
        "195323.657000",
        "195324.588000",
        "195325.573000",
        "195326.549000",
        "195327.570000",
        "195328.579000",
        "195329.559000",
        "195330.591000",
        "195331.559000",
        "195332.592000",
        "195333.597000",
        "195334.573000",
        "195335.569000",
        "195336.586000",
        "195337.582000",
        "195338.565000",
        "195339.587000",
        "195340.566000",
        "195341.587000",
        "195342.600000",
        "195343.618000",
        "195344.567000",
        "195345.593000",
        "195346.609000",
        "195347.578000",
        "195348.593000",
        "195349.622000",
        "195350.573000",
        "195351.585000",
        "195352.585000",
        "195353.593000",
        "195354.601000",
        "195355.594000",
        "195356.595000",
        "195357.594000",
        "195358.603000",
        "195359.592000",
        "195400.603000",
        "195401.617000",
        "195402.583000",
        "195403.564000",
        "195404.570000",
        "195405.610000",
        "195406.572000",
        "195407.581000",
        "195408.573000",
        "195409.552000",
        "195410.637000",
        "195411.621000",
        "195412.628000",
        "195413.601000",
        "195414.614000",
        "195415.579000",
        "195416.590000",
        "195417.581000",
        "195418.572000",
        "195419.558000",
        "195420.583000",
        "195421.575000",
        "195422.604000",
        "195423.582000",
        "195424.574000",
        "195425.582000",
        "195426.576000",
        "195427.590000",
        "195428.594000",
        "195429.595000",
        "195430.586000",
        "195431.587000",
        "195432.597000",
        "195433.591000",
        "195434.580000",
        "195435.561000",
        "195436.572000",
        "195437.587000",
        "195438.583000",
        "195439.550000",
        "195440.609000",
        "195441.583000",
        "195442.583000",
        "195443.590000",
        "195444.600000",
        "195445.597000",
        "195446.584000",
        "195447.601000",
        "195448.588000",
        "195449.606000",
        "195450.596000",
        "195451.574000",
        "195452.619000",
        "195453.581000",
        "195454.598000",
        "195455.605000",
        "195456.611000",
        "195457.624000",
        "195458.591000",
        "195459.568000",
        "195500.571000",
        "195501.587000",
        "195502.597000",
        "195503.668000",
        "195504.611000",
        "195505.576000",
        "195506.591000",
        "195507.607000",
        "195508.590000",
        "195509.588000",
        "195510.589000",
        "195511.596000",
        "195512.570000",
        "195513.566000",
        "195514.555000",
        "195515.595000",
        "195516.572000",
        "195517.596000",
        "195518.568000",
        "195519.585000",
        "195520.582000",
        "195521.601000",
        "195522.600000",
        "195523.592000",
        "195524.585000",
        "195525.583000",
        "195526.581000",
        "195527.623000",
        "195528.589000",
        "195529.595000",
        "195530.575000",
        "195531.590000",
        "195532.581000",
        "195533.622000",
        "195534.554000",
        "195535.617000",
        "195536.591000",
        "195537.576000",
        "195538.595000",
        "195539.593000",
        "195540.599000",
        "195541.588000",
        "195542.568000",
        "195543.592000",
        "195544.567000",
        "195545.584000",
        "195546.594000",
        "195547.594000",
        "195548.582000",
        "195549.587000",
        "195550.586000",
        "195551.610000",
        "195552.580000",
        "195553.628000",
        "195554.651000",
        "195555.566000",
        "195556.587000",
        "195557.605000",
        "195558.581000",
        "195559.633000",
        "195600.618000",
        "195601.593000",
        "195602.593000",
        "195603.607000",
        "195604.570000",
        "195605.586000",
        "195606.586000",
        "195607.599000",
        "195608.593000",
        "195609.596000",
        "195610.593000",
        "195611.586000",
        "195612.586000",
        "195613.583000",
        "195614.585000",
        "195615.574000",
        "195616.585000",
        "195617.579000",
        "195618.624000",
        "195619.591000",
        "195620.599000",
        "195621.601000",
        "195622.632000",
        "195623.648000",
        "195624.591000",
        "195625.588000",
        "195626.593000",
        "195627.595000",
        "195628.615000",
        "195629.559000",
        "195630.619000",
        "195631.558000",
        "195632.580000",
        "195633.588000",
        "195634.583000",
        "195635.591000",
        "195636.608000",
        "195637.590000",
        "195638.598000",
        "195639.598000",
        "195640.630000",
        "195641.585000",
        "195642.585000",
        "195643.582000",
        "195644.645000",
        "195645.592000",
        "195646.581000",
        "195647.596000",
        "195648.596000",
        "195649.593000",
        "195650.566000",
        "195651.581000",
        "195652.594000",
        "195653.599000",
        "195654.618000",
        "195655.587000",
        "195656.579000",
        "195657.606000",
        "195658.570000",
        "195659.584000",
        "195700.586000",
        "195701.606000",
        "195702.575000",
        "195703.582000",
        "195704.571000",
        "195705.649000",
        "195706.592000",
        "195707.580000",
        "195708.586000",
        "195709.583000",
        "195710.590000",
        "195711.601000",
        "195712.581000",
        "195713.586000",
        "195714.552000",
        "195715.581000",
        "195716.589000",
        "195717.606000",
        "195718.614000",
        "195719.581000",
        "195720.578000",
        "195721.561000",
        "195722.605000",
        "195723.566000",
        "195724.612000",
        "195725.582000",
        "195726.595000",
        "195727.585000",
        "195728.551000",
        "195729.604000",
        "195730.569000",
        "195731.592000",
        "195732.562000",
        "195733.597000",
        "195734.587000",
        "195735.606000",
        "195736.592000",
        "195737.601000",
        "195738.590000",
        "195739.596000",
        "195740.576000",
        "195741.582000",
        "195742.586000",
        "195743.575000",
        "195744.591000",
        "195745.594000",
        "195746.595000",
        "195747.604000",
        "195748.629000",
        "195749.596000"
      ],
      "InstanceCreationTime": [
        "195302.719000",
        "195303.601000",
        "195304.602000",
        "195305.580000",
        "195306.579000",
        "195307.613000",
        "195308.586000",
        "195309.590000",
        "195310.597000",
        "195311.596000",
        "195312.559000",
        "195313.568000",
        "195314.609000",
        "195315.585000",
        "195316.614000",
        "195317.574000",
        "195318.555000",
        "195319.602000",
        "195320.577000",
        "195321.551000",
        "195322.597000",
        "195323.657000",
        "195324.588000",
        "195325.573000",
        "195326.549000",
        "195327.570000",
        "195328.579000",
        "195329.559000",
        "195330.591000",
        "195331.559000",
        "195332.592000",
        "195333.597000",
        "195334.573000",
        "195335.569000",
        "195336.586000",
        "195337.582000",
        "195338.565000",
        "195339.587000",
        "195340.566000",
        "195341.587000",
        "195342.600000",
        "195343.618000",
        "195344.567000",
        "195345.593000",
        "195346.609000",
        "195347.578000",
        "195348.593000",
        "195349.622000",
        "195350.573000",
        "195351.585000",
        "195352.585000",
        "195353.593000",
        "195354.601000",
        "195355.594000",
        "195356.595000",
        "195357.594000",
        "195358.603000",
        "195359.592000",
        "195400.603000",
        "195401.617000",
        "195402.583000",
        "195403.564000",
        "195404.570000",
        "195405.610000",
        "195406.572000",
        "195407.581000",
        "195408.573000",
        "195409.552000",
        "195410.637000",
        "195411.621000",
        "195412.628000",
        "195413.601000",
        "195414.614000",
        "195415.579000",
        "195416.590000",
        "195417.581000",
        "195418.572000",
        "195419.558000",
        "195420.583000",
        "195421.575000",
        "195422.604000",
        "195423.582000",
        "195424.574000",
        "195425.582000",
        "195426.576000",
        "195427.590000",
        "195428.594000",
        "195429.595000",
        "195430.586000",
        "195431.587000",
        "195432.597000",
        "195433.591000",
        "195434.580000",
        "195435.561000",
        "195436.572000",
        "195437.587000",
        "195438.583000",
        "195439.550000",
        "195440.609000",
        "195441.583000",
        "195442.583000",
        "195443.590000",
        "195444.600000",
        "195445.597000",
        "195446.584000",
        "195447.601000",
        "195448.588000",
        "195449.606000",
        "195450.596000",
        "195451.574000",
        "195452.619000",
        "195453.581000",
        "195454.598000",
        "195455.605000",
        "195456.611000",
        "195457.624000",
        "195458.591000",
        "195459.568000",
        "195500.571000",
        "195501.587000",
        "195502.597000",
        "195503.668000",
        "195504.611000",
        "195505.576000",
        "195506.591000",
        "195507.607000",
        "195508.590000",
        "195509.588000",
        "195510.589000",
        "195511.596000",
        "195512.570000",
        "195513.566000",
        "195514.555000",
        "195515.595000",
        "195516.572000",
        "195517.596000",
        "195518.568000",
        "195519.585000",
        "195520.582000",
        "195521.601000",
        "195522.600000",
        "195523.592000",
        "195524.585000",
        "195525.583000",
        "195526.581000",
        "195527.623000",
        "195528.589000",
        "195529.595000",
        "195530.575000",
        "195531.590000",
        "195532.581000",
        "195533.622000",
        "195534.554000",
        "195535.617000",
        "195536.591000",
        "195537.576000",
        "195538.595000",
        "195539.593000",
        "195540.599000",
        "195541.588000",
        "195542.568000",
        "195543.592000",
        "195544.567000",
        "195545.584000",
        "195546.594000",
        "195547.594000",
        "195548.582000",
        "195549.587000",
        "195550.586000",
        "195551.610000",
        "195552.580000",
        "195553.628000",
        "195554.651000",
        "195555.566000",
        "195556.587000",
        "195557.605000",
        "195558.581000",
        "195559.633000",
        "195600.618000",
        "195601.593000",
        "195602.593000",
        "195603.607000",
        "195604.570000",
        "195605.586000",
        "195606.586000",
        "195607.599000",
        "195608.593000",
        "195609.596000",
        "195610.593000",
        "195611.586000",
        "195612.586000",
        "195613.583000",
        "195614.585000",
        "195615.574000",
        "195616.585000",
        "195617.579000",
        "195618.624000",
        "195619.591000",
        "195620.599000",
        "195621.601000",
        "195622.632000",
        "195623.648000",
        "195624.591000",
        "195625.588000",
        "195626.593000",
        "195627.595000",
        "195628.615000",
        "195629.559000",
        "195630.619000",
        "195631.558000",
        "195632.580000",
        "195633.588000",
        "195634.583000",
        "195635.591000",
        "195636.608000",
        "195637.590000",
        "195638.598000",
        "195639.598000",
        "195640.630000",
        "195641.585000",
        "195642.585000",
        "195643.582000",
        "195644.645000",
        "195645.592000",
        "195646.581000",
        "195647.596000",
        "195648.596000",
        "195649.593000",
        "195650.566000",
        "195651.581000",
        "195652.594000",
        "195653.599000",
        "195654.618000",
        "195655.587000",
        "195656.579000",
        "195657.606000",
        "195658.570000",
        "195659.584000",
        "195700.586000",
        "195701.606000",
        "195702.575000",
        "195703.582000",
        "195704.571000",
        "195705.649000",
        "195706.592000",
        "195707.580000",
        "195708.586000",
        "195709.583000",
        "195710.590000",
        "195711.601000",
        "195712.581000",
        "195713.586000",
        "195714.552000",
        "195715.581000",
        "195716.589000",
        "195717.606000",
