{
  "AcquisitionMatrixPE": 96,
  "AcquisitionNumber": 1,
  "AcquisitionTime": "19:42:3.072500",
  "BandwidthPerPixelPhaseEncode": 18.939,
  "BaseResolution": 96,
  "BodyPartExamined": "BRAIN",
  "ConsistencyInfo": "N4_VE11C_LATEST_20160120",
  "ConversionSoftware": "dcm2niix",
  "ConversionSoftwareVersion": "v1.0.20170923 (OpenJPEG build) GCC6.3.0",
  "DerivedVendorReportedEchoSpacing": 0.000550011,
  "DeviceSerialNumber": "66112",
  "DwellTime": 2.2e-06,
  "EchoTime": 0.033,
  "EchoTrainLength": 96,
  "EffectiveEchoSpacing": 0.000550011,
  "FlipAngle": 59,
  "ImageType": [
    "ORIGINAL",
    "PRIMARY",
    "FMRI",
    "NONE",
    "ND",
    "NORM",
    "MOSAIC"
],
  "InstitutionAddress": "Maynard_3_Hanover_NH_US_03755",
  "InstitutionName": "Dartmouth_College_-_PBS",
  "MagneticFieldStrength": 3,
  "Manufacturer": "Siemens",
  "ManufacturersModelName": "Prisma",
  "Modality": "MR",
  "MultibandAccelerationFactor": 4,
  "PartialFourier": 1,
  "PercentPhaseFOV": 100,
  "PhaseEncodingDirection": "j-",
  "PhaseEncodingSteps": 96,
  "PhaseResolution": 1,
  "ProcedureStepDescription": "Gobbini_Matteo_1038_hyperface",
  "ProtocolName": "func_run-06_task-visualmemory",
  "PulseSequenceDetails": "%SiemensSeq%_ep2d_bold",
  "ReceiveCoilActiveElements": "HEA;HEP",
  "ReceiveCoilName": "Head_32",
  "ReconMatrixPE": 96,
  "RepetitionTime": 1,
  "ScanOptions": "FS",
  "ScanningSequence": "EP",
  "SequenceName": "_epfid2d1_96",
  "SequenceVariant": "SK",
  "SeriesDescription": "func_run-06_task-visualmemory",
  "SliceTiming": [0.735, 0, 0.49, 0.0825, 0.5725, 0.1625, 0.6525, 0.3275, 0.815, 0.4075, 0.8975, 0.245, 0.735, 0, 0.49, 0.0825, 0.5725, 0.1625, 0.6525, 0.3275, 0.815, 0.4075, 0.8975, 0.245, 0.735, 0, 0.49, 0.0825, 0.5725, 0.1625, 0.6525, 0.3275, 0.815, 0.4075, 0.8975, 0.245, 0.735, 0, 0.49, 0.0825, 0.5725, 0.1625, 0.6525, 0.3275, 0.815, 0.4075, 0.8975, 0.245],
  "SoftwareVersions": "syngo_MR_E11",
  "StationName": "AWP66112",
  "TotalReadoutTime": 0.0522511,
  "dcmmeta_affine": [
    [-2.4997775554656982, -0.033160194754600525, -0.0036022448912262917, 123.42800903320312],
    [-0.03314701467752457, 2.4997639656066895, -0.009022184647619724, -104.96260070800781],
    [-0.003721575951203704, 0.008973619900643826, 2.499981164932251, -70.30608367919922],
    [0.0, 0.0, 0.0, 1.0]
],
  "dcmmeta_reorient_transform": [
    [0.0, -1.0, 0.0, 95.0],
    [1.0, 0.0, 0.0, 0.0],
    [0.0, 0.0, 1.0, 0.0],
    [0.0, 0.0, 0.0, 1.0]
],
  "dcmmeta_shape": [96, 96, 48, 288],
  "dcmmeta_slice_dim": 2,
  "dcmmeta_version": 0.6,
  "global": {
    "const": {
      "AccessionNumber": "A001155",
      "AcquisitionMatrix": [96, 0, 0, 96],
      "AngioFlag": "N",
      "BitsAllocated": 16,
      "BitsStored": 12,
      "BodyPartExamined": "BRAIN",
      "Columns": 672,
      "EchoNumbers": 1,
      "EchoTime": 33.0,
      "EchoTrainLength": 96,
      "FlipAngle": 59.0,
      "HighBit": 11,
      "ImageOrientationPatient": [0.99991099005893, 0.01325880609414, -0.0014886303533, -0.0132640782678, 0.99990558558854, -0.0035894479457],
      "ImagePositionPatient": [-830.66356611711, -861.99333548104, -65.797371992466],
      "ImageType": [
        "ORIGINAL",
        "PRIMARY",
        "FMRI",
        "NONE",
        "ND",
        "NORM",
        "MOSAIC"
],
      "ImagedNucleus": "1H",
      "ImagingFrequency": 123.25232,
      "InPlanePhaseEncodingDirection": "COL",
      "MRAcquisitionType": "2D",
      "MagneticFieldStrength": 3.0,
      "Manufacturer": "SIEMENS",
      "ManufacturerModelName": "Prisma",
      "Modality": "MR",
      "NumberOfAverages": 1.0,
      "NumberOfPhaseEncodingSteps": 96,
      "PercentPhaseFieldOfView": 100.0,
      "PercentSampling": 100.0,
      "PerformedProcedureStepStartTime": "185608.983000",
      "PhotometricInterpretation": "MONOCHROME2",
      "PixelBandwidth": 2365.0,
      "PixelRepresentation": 0,
      "PixelSpacing": [2.5, 2.5],
      "PositionReferenceIndicator": "",
      "ProtocolName": "func_run-06_task-visualmemory",
      "RepetitionTime": 1000.0,
      "Rows": 672,
      "SAR": 0.04898006426264,
      "SamplesPerPixel": 1,
      "ScanOptions": "FS",
      "ScanningSequence": "EP",
      "SequenceName": "*epfid2d1_96",
      "SequenceVariant": "SK",
      "SeriesDescription": "func_run-06_task-visualmemory",
      "SeriesNumber": 42,
      "SeriesTime": "194204.056000",
      "SliceLocation": -70.10460182398,
      "SliceThickness": 2.5,
      "SmallestImagePixelValue": 0,
      "SoftwareVersions": "syngo MR E11",
      "SpacingBetweenSlices": 2.499999964113,
      "SpecificCharacterSet": "ISO_IR 100",
      "StudyID": "2",
      "StudyTime": "185608.929000",
      "TransmitCoilName": "Body",
      "VariableFlipAngleFlag": "N",
      "WindowCenterWidthExplanation": "Algo1",
      "dBdt": 0.0},
    "slices": {}
  },
  "time": {
    "samples": {
      "AcquisitionNumber": [1, 2, 3, 4, 5, 6, 7, 8, 9, 10, 11, 12, 13, 14, 15, 16, 17, 18, 19, 20, 21, 22, 23, 24, 25, 26, 27, 28, 29, 30, 31, 32, 33, 34, 35, 36, 37, 38, 39, 40, 41, 42, 43, 44, 45, 46, 47, 48, 49, 50, 51, 52, 53, 54, 55, 56, 57, 58, 59, 60, 61, 62, 63, 64, 65, 66, 67, 68, 69, 70, 71, 72, 73, 74, 75, 76, 77, 78, 79, 80, 81, 82, 83, 84, 85, 86, 87, 88, 89, 90, 91, 92, 93, 94, 95, 96, 97, 98, 99, 100, 101, 102, 103, 104, 105, 106, 107, 108, 109, 110, 111, 112, 113, 114, 115, 116, 117, 118, 119, 120, 121, 122, 123, 124, 125, 126, 127, 128, 129, 130, 131, 132, 133, 134, 135, 136, 137, 138, 139, 140, 141, 142, 143, 144, 145, 146, 147, 148, 149, 150, 151, 152, 153, 154, 155, 156, 157, 158, 159, 160, 161, 162, 163, 164, 165, 166, 167, 168, 169, 170, 171, 172, 173, 174, 175, 176, 177, 178, 179, 180, 181, 182, 183, 184, 185, 186, 187, 188, 189, 190, 191, 192, 193, 194, 195, 196, 197, 198, 199, 200, 201, 202, 203, 204, 205, 206, 207, 208, 209, 210, 211, 212, 213, 214, 215, 216, 217, 218, 219, 220, 221, 222, 223, 224, 225, 226, 227, 228, 229, 230, 231, 232, 233, 234, 235, 236, 237, 238, 239, 240, 241, 242, 243, 244, 245, 246, 247, 248, 249, 250, 251, 252, 253, 254, 255, 256, 257, 258, 259, 260, 261, 262, 263, 264, 265, 266, 267, 268, 269, 270, 271, 272, 273, 274, 275, 276, 277, 278, 279, 280, 281, 282, 283, 284, 285, 286, 287, 288],
      "AcquisitionTime": ["194203.072500", "194204.072500", "194205.072500", "194206.072500", "194207.072500", "194208.072500", "194209.072500", "194210.072500", "194211.072500", "194212.072500", "194213.072500", "194214.072500", "194215.072500", "194216.072500", "194217.072500", "194218.072500", "194219.072500", "194220.072500", "194221.072500", "194222.072500", "194223.072500", "194224.072500", "194225.072500", "194226.072500", "194227.072500", "194228.072500", "194229.072500", "194230.072500", "194231.072500", "194232.072500", "194233.072500", "194234.072500", "194235.072500", "194236.072500", "194237.072500", "194238.072500", "194239.072500", "194240.072500", "194241.072500", "194242.072500", "194243.072500", "194244.072500", "194245.072500", "194246.072500", "194247.072500", "194248.072500", "194249.072500", "194250.072500", "194251.072500", "194252.072500", "194253.072500", "194254.072500", "194255.072500", "194256.072500", "194257.072500", "194258.072500", "194259.072500", "194300.072500", "194301.072500", "194302.072500", "194303.072500", "194304.072500", "194305.072500", "194306.072500", "194307.072500", "194308.072500", "194309.072500", "194310.072500", "194311.072500", "194312.072500", "194313.072500", "194314.072500", "194315.072500", "194316.072500", "194317.072500", "194318.072500", "194319.072500", "194320.072500", "194321.072500", "194322.072500", "194323.072500", "194324.072500", "194325.072500", "194326.072500", "194327.072500", "194328.072500", "194329.072500", "194330.072500", "194331.072500", "194332.072500", "194333.072500", "194334.072500", "194335.072500", "194336.072500", "194337.072500", "194338.072500", "194339.072500", "194340.072500", "194341.072500", "194342.072500", "194343.072500", "194344.072500", "194345.072500", "194346.072500", "194347.072500", "194348.072500", "194349.072500", "194350.072500", "194351.072500", "194352.072500", "194353.072500", "194354.072500", "194355.072500", "194356.072500", "194357.072500", "194358.072500", "194359.072500", "194400.072500", "194401.072500", "194402.072500", "194403.072500", "194404.072500", "194405.072500", "194406.072500", "194407.072500", "194408.072500", "194409.072500", "194410.072500", "194411.072500", "194412.072500", "194413.072500", "194414.072500", "194415.072500", "194416.072500", "194417.072500", "194418.072500", "194419.072500", "194420.072500", "194421.072500", "194422.072500", "194423.072500", "194424.072500", "194425.072500", "194426.072500", "194427.072500", "194428.072500", "194429.072500", "194430.072500", "194431.072500", "194432.072500", "194433.072500", "194434.072500", "194435.072500", "194436.072500", "194437.072500", "194438.072500", "194439.072500", "194440.072500", "194441.072500", "194442.072500", "194443.072500", "194444.072500", "194445.072500", "194446.072500", "194447.072500", "194448.072500", "194449.072500", "194450.072500", "194451.072500", "194452.072500", "194453.072500", "194454.072500", "194455.072500", "194456.072500", "194457.072500", "194458.072500", "194459.072500", "194500.072500", "194501.072500", "194502.072500", "194503.072500", "194504.072500", "194505.072500", "194506.072500", "194507.072500", "194508.072500", "194509.072500", "194510.072500", "194511.072500", "194512.072500", "194513.072500", "194514.072500", "194515.072500", "194516.072500", "194517.072500", "194518.072500", "194519.072500", "194520.072500", "194521.072500", "194522.072500", "194523.072500", "194524.072500", "194525.072500", "194526.072500", "194527.072500", "194528.072500", "194529.072500", "194530.072500", "194531.072500", "194532.072500", "194533.072500", "194534.072500", "194535.072500", "194536.072500", "194537.072500", "194538.072500", "194539.072500", "194540.072500", "194541.072500", "194542.072500", "194543.072500", "194544.072500", "194545.072500", "194546.072500", "194547.072500", "194548.072500", "194549.072500", "194550.072500", "194551.072500", "194552.072500", "194553.072500", "194554.072500", "194555.072500", "194556.072500", "194557.072500", "194558.072500", "194559.072500", "194600.072500", "194601.072500", "194602.072500", "194603.072500", "194604.072500", "194605.072500", "194606.072500", "194607.072500", "194608.072500", "194609.072500", "194610.072500", "194611.072500", "194612.072500", "194613.072500", "194614.072500", "194615.072500", "194616.072500", "194617.072500", "194618.072500", "194619.072500", "194620.072500", "194621.072500", "194622.072500", "194623.072500", "194624.072500", "194625.072500", "194626.072500", "194627.072500", "194628.072500", "194629.072500", "194630.072500", "194631.072500", "194632.072500", "194633.072500", "194634.072500", "194635.072500", "194636.072500", "194637.072500", "194638.072500", "194639.072500", "194640.072500", "194641.072500", "194642.072500", "194643.072500", "194644.072500", "194645.072500", "194646.072500", "194647.072500", "194648.072500", "194649.072500", "194650.072500"],
      "ContentTime": ["194204.061000", "194204.844000", "194205.845000", "194206.852000", "194207.838000", "194208.853000", "194209.817000", "194210.829000", "194211.869000", "194212.842000", "194213.844000", "194214.848000", "194215.838000", "194216.828000", "194217.867000", "194218.841000", "194219.817000", "194220.815000", "194221.861000", "194222.846000", "194223.850000", "194224.851000", "194225.820000", "194226.860000", "194227.843000", "194228.841000", "194229.838000", "194230.813000", "194231.837000", "194232.854000", "194233.888000", "194234.831000", "194235.811000", "194236.862000", "194237.841000", "194238.828000", "194239.832000", "194240.835000", "194241.835000", "194242.826000", "194243.807000", "194244.850000", "194245.815000", "194246.816000", "194247.837000", "194248.828000", "194249.880000", "194250.808000", "194251.833000", "194252.848000", "194253.865000", "194254.830000", "194255.845000", "194256.821000", "194257.847000", "194258.839000", "194259.827000", "194300.872000", "194301.816000", "194302.833000", "194303.833000", "194304.814000", "194305.821000", "194306.822000", "194307.832000", "194308.846000", "194309.830000", "194310.843000", "194311.837000", "194312.827000", "194313.865000", "194314.832000", "194315.828000", "194316.834000", "194317.841000", "194318.905000", "194319.839000", "194320.829000", "194321.836000", "194322.843000", "194323.833000", "194324.843000", "194325.848000", "194326.849000", "194327.838000", "194328.851000", "194329.838000", "194330.851000", "194331.878000", "194332.837000", "194333.873000", "194334.829000", "194335.838000", "194336.835000", "194337.833000", "194338.836000", "194339.855000", "194340.834000", "194341.839000", "194342.828000", "194343.829000", "194344.850000", "194345.864000", "194346.837000", "194347.834000", "194348.804000", "194349.827000", "194350.838000", "194351.838000", "194352.845000", "194353.845000", "194354.894000", "194355.833000", "194356.842000", "194357.872000", "194358.854000", "194359.830000", "194400.855000", "194401.854000", "194402.847000", "194403.825000", "194404.848000", "194405.843000", "194406.840000", "194407.830000", "194408.838000", "194409.809000", "194410.831000", "194411.849000", "194412.828000", "194413.834000", "194414.856000", "194415.835000", "194416.847000", "194417.806000", "194418.846000", "194419.838000", "194420.837000", "194421.884000", "194422.868000", "194423.816000", "194424.838000", "194425.848000", "194426.836000", "194427.826000", "194428.850000", "194429.841000", "194430.843000", "194431.847000", "194432.849000", "194433.821000", "194434.830000", "194435.859000", "194436.861000", "194437.873000", "194438.859000", "194439.858000", "194440.837000", "194441.823000", "194442.845000", "194443.836000", "194444.870000", "194445.837000", "194446.833000", "194447.848000", "194448.838000", "194449.797000", "194450.895000", "194451.836000", "194452.842000", "194453.841000", "194454.855000", "194455.842000", "194456.855000", "194457.836000", "194458.859000", "194459.881000", "194500.845000", "194501.833000", "194502.870000", "194503.851000", "194504.805000", "194505.850000", "194506.842000", "194507.825000", "194508.845000", "194509.826000", "194510.841000", "194511.839000", "194512.828000", "194513.863000", "194514.863000", "194515.837000", "194516.841000", "194517.836000", "194518.819000", "194519.852000", "194520.842000", "194521.830000", "194522.868000", "194523.836000", "194524.836000", "194525.859000", "194526.820000", "194527.840000", "194528.847000", "194529.861000", "194530.853000", "194531.810000", "194532.883000", "194533.829000", "194534.816000", "194535.860000", "194536.838000", "194537.832000", "194538.832000", "194539.831000", "194540.828000", "194541.819000", "194542.825000", "194543.831000", "194544.842000", "194545.846000", "194546.849000", "194547.878000", "194548.851000", "194549.828000", "194550.894000", "194551.829000", "194552.850000", "194553.829000", "194554.831000", "194555.849000", "194556.827000", "194557.854000", "194558.843000", "194559.835000", "194600.916000", "194601.824000", "194602.860000", "194603.832000", "194604.833000", "194605.840000", "194606.822000", "194607.842000", "194608.825000", "194609.859000", "194610.840000", "194611.814000", "194612.838000", "194613.823000", "194614.821000", "194615.862000", "194616.829000", "194617.849000", "194618.837000", "194619.866000", "194620.850000", "194621.869000", "194622.840000", "194623.835000", "194624.839000", "194625.831000", "194626.805000", "194627.826000", "194628.819000", "194629.839000", "194630.840000", "194631.819000", "194632.823000", "194633.883000", "194634.822000", "194635.817000", "194636.814000", "194637.836000", "194638.822000", "194639.830000", "194640.856000", "194641.856000", "194642.886000", "194643.871000", "194644.824000", "194645.821000", "194646.825000", "194647.815000", "194648.829000", "194649.794000", "194650.871000"],
      "InstanceCreationTime": ["194204.061000", "194204.844000", "194205.845000", "194206.852000", "194207.838000", "194208.853000", "194209.817000", "194210.829000", "194211.869000", "194212.842000", "194213.844000", "194214.848000", "194215.838000", "194216.828000", "194217.867000", "194218.841000", "194219.817000", "194220.815000", "194221.861000", "194222.846000", "194223.850000", "194224.851000", "194225.820000", "194226.860000", "194227.843000", "194228.841000", "194229.838000", "194230.813000", "194231.837000", "194232.854000", "194233.888000", "194234.831000", "194235.811000", "194236.862000", "194237.841000", "194238.828000", "194239.832000", "194240.835000", "194241.835000", "194242.826000", "194243.807000", "194244.850000", "194245.815000", "194246.816000", "194247.837000", "194248.828000", "194249.880000", "194250.808000", "194251.833000", "194252.848000", "194253.865000", "194254.830000", "194255.845000", "194256.821000", "194257.847000", "194258.839000", "194259.827000", "194300.872000", "194301.816000", "194302.833000", "194303.833000", "194304.814000", "194305.821000", "194306.822000", "194307.832000", "194308.846000", "194309.830000", "194310.843000", "194311.837000", "194312.827000", "194313.865000", "194314.832000", "194315.828000", "194316.834000", "194317.841000", "194318.905000", "194319.839000", "194320.829000", "194321.836000", "194322.843000", "194323.833000", "194324.843000", "194325.848000", "194326.849000", "194327.838000", "194328.851000", "194329.838000", "194330.851000", "194331.878000", "194332.837000", "194333.873000", "194334.829000", "194335.838000", "194336.835000", "194337.833000", "194338.836000", "194339.855000", "194340.834000", "194341.839000", "194342.828000", "194343.829000", "194344.850000", "194345.864000", "194346.837000", "194347.834000", "194348.804000", "194349.827000", "194350.838000", "194351.838000", "194352.845000", "194353.845000", "194354.894000", "194355.833000", "194356.842000", "194357.872000", "194358.854000", "194359.830000", "194400.855000", "194401.854000", "194402.847000", "194403.825000", "194404.848000", "194405.843000", "194406.840000", "194407.830000", "194408.838000", "194409.809000", "194410.831000", "194411.849000", "194412.828000", "194413.834000", "194414.856000", "194415.835000", "194416.847000", "194417.806000", "194418.846000", "194419.838000", "194420.837000", "194421.884000", "194422.868000", "194423.816000", "194424.838000", "194425.848000", "194426.836000", "194427.826000", "194428.850000", "194429.841000", "194430.843000", "194431.847000", "194432.849000", "194433.821000", "194434.830000", "194435.859000", "194436.861000", "194437.873000", "194438.859000", "194439.858000", "194440.837000", "194441.823000", "194442.845000", "194443.836000", "194444.870000", "194445.837000", "194446.833000", "194447.848000", "194448.838000", "194449.797000", "194450.895000", "194451.836000", "194452.842000", "194453.841000", "194454.855000", "194455.842000", "194456.855000", "194457.836000", "194458.859000", "194459.881000", "194500.845000", "194501.833000", "194502.870000", "194503.851000", "194504.805000", "194505.850000", "194506.842000", "194507.825000", "194508.845000", "194509.826000", "194510.841000", "194511.839000", "194512.828000", "194513.863000", "194514.863000", "194515.837000", "194516.841000", "194517.836000", "194518.819000", "194519.852000", "194520.842000", "194521.830000", "194522.868000", "194523.836000", "194524.836000", "194525.859000", "194526.820000", "194527.840000", "194528.847000", "194529.861000", "194530.853000", "194531.810000", "194532.883000", "194533.829000", "194534.816000", "194535.860000", "194536.838000", "194537.832000", "194538.832000", "194539.831000", "194540.828000", "194541.819000", "194542.825000", "194543.831000", "194544.842000", "194545.846000", "194546.849000", "194547.878000", "194548.851000", "194549.828000", "194550.894000", "194551.829000", "194552.850000", "194553.829000", "194554.831000", "194555.849000", "194556.827000", "194557.854000", "194558.843000", "194559.835000", "194600.916000", "194601.824000", "194602.860000", "194603.832000", "194604.833000", "194605.840000", "194606.822000", "194607.842000", "194608.825000", "194609.859000", "194610.840000", "194611.814000", "194612.838000", "194613.823000", "194614.821000", "194615.862000", "194616.829000", "194617.849000", "194618.837000", "194619.866000", "194620.850000", "194621.869000", "194622.840000", "194623.835000", "194624.839000", "194625.831000", "194626.805000", "194627.826000", "194628.819000", "194629.839000", "194630.840000", "194631.819000", "194632.823000", "194633.883000", "194634.822000", "194635.817000", "194636.814000", "194637.836000", "194638.822000", "194639.830000", "194640.856000", "194641.856000", "194642.886000", "194643.871000", "194644.824000", "194645.821000", "194646.825000", "194647.815000", "194648.829000", "194649.794000", "194650.871000"],
      "InstanceNumber": [1, 2, 3, 4, 5, 6, 7, 8, 9, 10, 11, 12, 13, 14, 15, 16, 17, 18, 19, 20, 21, 22, 23, 24, 25, 26, 27, 28, 29, 30, 31, 32, 33, 34, 35, 36, 37, 38, 39, 40, 41, 42, 43, 44, 45, 46, 47, 48, 49, 50, 51, 52, 53, 54, 55, 56, 57, 58, 59, 60, 61, 62, 63, 64, 65, 66, 67, 68, 69, 70, 71, 72, 73, 74, 75, 76, 77, 78, 79, 80, 81, 82, 83, 84, 85, 86, 87, 88, 89, 90, 91, 92, 93, 94, 95, 96, 97, 98, 99, 100, 101, 102, 103, 104, 105, 106, 107, 108, 109, 110, 111, 112, 113, 114, 115, 116, 117, 118, 119, 120, 121, 122, 123, 124, 125, 126, 127, 128, 129, 130, 131, 132, 133, 134, 135, 136, 137, 138, 139, 140, 141, 142, 143, 144, 145, 146, 147, 148, 149, 150, 151, 152, 153, 154, 155, 156, 157, 158, 159, 160, 161, 162, 163, 164, 165, 166, 167, 168, 169, 170, 171, 172, 173, 174, 175, 176, 177, 178, 179, 180, 181, 182, 183, 184, 185, 186, 187, 188, 189, 190, 191, 192, 193, 194, 195, 196, 197, 198, 199, 200, 201, 202, 203, 204, 205, 206, 207, 208, 209, 210, 211, 212, 213, 214, 215, 216, 217, 218, 219, 220, 221, 222, 223, 224, 225, 226, 227, 228, 229, 230, 231, 232, 233, 234, 235, 236, 237, 238, 239, 240, 241, 242, 243, 244, 245, 246, 247, 248, 249, 250, 251, 252, 253, 254, 255, 256, 257, 258, 259, 260, 261, 262, 263, 264, 265, 266, 267, 268, 269, 270, 271, 272, 273, 274, 275, 276, 277, 278, 279, 280, 281, 282, 283, 284, 285, 286, 287, 288],
      "LargestImagePixelValue": [1413, 1108, 814, 909, 1132, 1280, 1048, 808, 990, 1349, 1244, 855, 730, 974, 1289, 1067, 725, 976, 1262, 1240, 869, 912, 1253, 1285, 951, 759, 897, 1404, 1190, 834, 893, 874, 1342, 1084, 836, 910, 1274, 1223, 1028, 955, 1150, 1323, 1066, 792, 841, 813, 1182, 898, 900, 1350, 989, 1071, 1446, 1086, 960, 781, 998, 776, 1301, 1104, 809, 706, 973, 1354, 1315, 1091, 1077, 906, 1320, 1293, 1033, 810, 1212, 1280, 1018, 787, 981, 1124, 1309, 1124, 910, 846, 1355, 1247, 849, 843, 779, 1409, 1287, 1042, 823, 1006, 1285, 1293, 951, 921, 910, 1347, 1064, 714, 996, 1320, 994, 732, 988, 1284, 1253, 880, 1022, 784, 1281, 1202, 983, 754, 968, 951, 1374, 1160, 847, 767, 891, 800, 1355, 1185, 951, 814, 1207, 1299, 1043, 779, 1126, 1323, 1011, 812, 899, 1419, 1208, 1019, 717, 873, 1325, 1317, 1062, 776, 829, 879, 1355, 1239, 995, 830, 1115, 931, 1333, 1177, 900, 900, 1357, 1228, 1035, 862, 1017, 1370, 1093, 901, 795, 1380, 1189, 839, 858, 1103, 1367, 1192, 991, 942, 1324, 1258, 922, 860, 839, 1217, 1308, 1033, 789, 884, 1437, 1260, 970, 979, 906, 1389, 1289, 1085, 808, 927, 842, 1382, 1215, 869, 838, 1016, 1291, 1313, 1085, 859, 899, 1315, 1266, 1029, 769, 914, 783, 1187, 1335, 1041, 826, 1404, 1240, 858, 738, 1139, 1325, 1089, 903, 782, 778, 961, 952, 1346, 1171, 955, 887, 1053, 873, 1297, 1357, 1132, 938, 897, 894, 826, 1196, 1417, 1283, 1137, 1036, 884, 798, 1191, 1252, 1312, 1171, 908, 865, 1400, 1223, 915, 1047, 986, 1346, 1147, 1060, 782, 1154, 949, 1303, 1174, 904, 802, 927, 942, 1330, 1132, 856, 781, 956, 1334, 1339, 1184, 1019, 998, 1052, 1118, 1401, 1152, 973, 861, 982, 1119],
      "WindowCenter": [382.0, 379.0, 376.0, 377.0, 378.0, 379.0, 378.0, 375.0, 377.0, 379.0, 378.0, 376.0, 375.0, 377.0, 379.0, 378.0, 376.0, 378.0, 379.0, 379.0, 377.0, 377.0, 379.0, 379.0, 377.0, 376.0, 377.0, 379.0, 379.0, 376.0, 377.0, 376.0, 380.0, 378.0, 377.0, 378.0, 380.0, 379.0, 378.0, 378.0, 379.0, 380.0, 378.0, 376.0, 377.0, 377.0, 380.0, 378.0, 380.0, 383.0, 379.0, 379.0, 380.0, 378.0, 377.0, 375.0, 377.0, 376.0, 380.0, 379.0, 377.0, 376.0, 378.0, 381.0, 380.0, 379.0, 378.0, 377.0, 380.0, 380.0, 379.0, 377.0, 380.0, 380.0, 378.0, 376.0, 377.0, 378.0, 379.0, 378.0, 377.0, 376.0, 380.0, 379.0, 376.0, 376.0, 376.0, 379.0, 379.0, 378.0, 377.0, 378.0, 380.0, 379.0, 378.0, 377.0, 377.0, 380.0, 378.0, 375.0, 378.0, 380.0, 378.0, 375.0, 378.0, 380.0, 379.0, 377.0, 378.0, 376.0, 380.0, 379.0, 378.0, 376.0, 378.0, 377.0, 379.0, 378.0, 376.0, 375.0, 377.0, 376.0, 380.0, 379.0, 377.0, 376.0, 379.0, 380.0, 378.0, 376.0, 378.0, 379.0, 378.0, 375.0, 376.0, 379.0, 378.0, 378.0, 375.0, 377.0, 379.0, 380.0, 378.0, 376.0, 377.0, 377.0, 381.0, 380.0, 379.0, 378.0, 379.0, 378.0, 380.0, 380.0, 377.0, 377.0, 380.0, 380.0, 379.0, 377.0, 379.0, 380.0, 379.0, 378.0, 377.0, 380.0, 379.0, 377.0, 377.0, 378.0, 380.0, 380.0, 378.0, 377.0, 380.0, 379.0, 376.0, 376.0, 376.0, 379.0, 380.0, 378.0, 376.0, 377.0, 380.0, 380.0, 378.0, 377.0, 377.0, 379.0, 379.0, 378.0, 376.0, 377.0, 377.0, 380.0, 379.0, 377.0, 377.0, 378.0, 379.0, 380.0, 378.0, 377.0, 377.0, 380.0, 379.0, 378.0, 376.0, 378.0, 377.0, 381.0, 382.0, 379.0, 377.0, 380.0, 380.0, 376.0, 375.0, 379.0, 380.0, 378.0, 377.0, 376.0, 376.0, 378.0, 378.0, 381.0, 380.0, 378.0, 377.0, 378.0, 378.0, 380.0, 380.0, 378.0, 377.0, 377.0, 377.0, 377.0, 380.0, 380.0, 379.0, 380.0, 379.0, 377.0, 377.0, 380.0, 380.0, 380.0, 380.0, 378.0, 378.0, 381.0, 380.0, 378.0, 378.0, 377.0, 380.0, 379.0, 379.0, 376.0, 379.0, 377.0, 380.0, 379.0, 378.0, 376.0, 378.0, 378.0, 381.0, 380.0, 378.0, 377.0, 379.0, 381.0, 381.0, 380.0, 378.0, 379.0, 379.0, 379.0, 380.0, 379.0, 377.0, 377.0, 378.0, 379.0],
      "WindowWidth": [812.0, 807.0, 802.0, 803.0, 805.0, 807.0, 804.0, 800.0, 803.0, 805.0, 805.0, 801.0, 799.0, 803.0, 806.0, 805.0, 801.0, 804.0, 807.0, 807.0, 803.0, 803.0, 805.0, 807.0, 803.0, 801.0, 803.0, 807.0, 805.0, 802.0, 803.0, 802.0, 808.0, 805.0, 804.0, 805.0, 808.0, 807.0, 806.0, 805.0, 807.0, 807.0, 805.0, 802.0, 803.0, 803.0, 807.0, 805.0, 808.0, 813.0, 807.0, 806.0, 808.0, 804.0, 803.0, 800.0, 803.0, 801.0, 807.0, 806.0, 804.0, 803.0, 806.0, 810.0, 808.0, 807.0, 805.0, 803.0, 807.0, 808.0, 806.0, 803.0, 807.0, 807.0, 804.0, 801.0, 804.0, 805.0, 806.0, 805.0, 803.0, 801.0, 807.0, 806.0, 802.0, 802.0, 801.0, 807.0, 807.0, 804.0, 803.0, 805.0, 807.0, 807.0, 804.0, 804.0, 804.0, 808.0, 805.0, 801.0, 804.0, 807.0, 804.0, 801.0, 805.0, 807.0, 807.0, 804.0, 805.0, 802.0, 807.0, 806.0, 805.0, 802.0, 805.0, 804.0, 807.0, 805.0, 801.0, 801.0, 802.0, 802.0, 808.0, 806.0, 804.0, 802.0, 806.0, 807.0, 804.0, 802.0, 805.0, 807.0, 804.0, 801.0, 802.0, 806.0, 805.0, 804.0, 801.0, 803.0, 807.0, 807.0, 805.0, 803.0, 803.0, 804.0, 809.0, 808.0, 806.0, 805.0, 806.0, 804.0, 808.0, 808.0, 804.0, 804.0, 809.0, 808.0, 806.0, 804.0, 806.0, 809.0, 807.0, 804.0, 803.0, 808.0, 807.0, 803.0, 804.0, 806.0, 808.0, 807.0, 804.0, 803.0, 807.0, 806.0, 802.0, 801.0, 802.0, 806.0, 807.0, 805.0, 802.0, 803.0, 808.0, 807.0, 805.0, 803.0, 803.0, 806.0, 806.0, 805.0, 802.0, 803.0, 803.0, 808.0, 807.0, 803.0, 803.0, 805.0, 807.0, 808.0, 805.0, 803.0, 803.0, 808.0, 806.0, 805.0, 802.0, 805.0, 804.0, 809.0, 811.0, 807.0, 804.0, 809.0, 807.0, 802.0, 801.0, 806.0, 807.0, 805.0, 804.0, 802.0, 802.0, 806.0, 805.0, 809.0, 807.0, 805.0, 804.0, 805.0, 804.0, 807.0, 808.0, 805.0, 804.0, 804.0, 804.0, 803.0, 807.0, 808.0, 807.0, 808.0, 806.0, 804.0, 803.0, 807.0, 807.0, 808.0, 808.0, 806.0, 805.0, 810.0, 808.0, 804.0, 805.0, 804.0, 807.0, 806.0, 806.0, 802.0, 806.0, 804.0, 808.0, 807.0, 804.0, 803.0, 805.0, 805.0, 810.0, 807.0, 805.0, 804.0, 806.0, 809.0, 809.0, 807.0, 805.0, 806.0, 806.0, 807.0, 808.0, 806.0, 803.0, 802.0, 805.0, 806.0]
    },
    "slices": {}
  }
}