{
  "AcquisitionMatrixPE": 96,
  "AcquisitionNumber": 1,
  "AcquisitionTime": "19:37:10.500000",
  "BandwidthPerPixelPhaseEncode": 18.939,
  "BaseResolution": 96,
  "BodyPartExamined": "BRAIN",
  "ConsistencyInfo": "N4_VE11C_LATEST_20160120",
  "ConversionSoftware": "dcm2niix",
  "ConversionSoftwareVersion": "v1.0.20170923 (OpenJPEG build) GCC6.3.0",
  "DerivedVendorReportedEchoSpacing": 0.000550011,
  "DeviceSerialNumber": "66112",
  "DwellTime": 2.2e-06,
  "EchoTime": 0.033,
  "EchoTrainLength": 96,
  "EffectiveEchoSpacing": 0.000550011,
  "FlipAngle": 59,
  "ImageType": [
    "ORIGINAL",
    "PRIMARY",
    "FMRI",
    "NONE",
    "ND",
    "NORM",
    "MOSAIC"
  ],
  "InstitutionAddress": "Maynard_3_Hanover_NH_US_03755",
  "InstitutionName": "Dartmouth_College_-_PBS",
  "MagneticFieldStrength": 3,
  "Manufacturer": "Siemens",
  "ManufacturersModelName": "Prisma",
  "Modality": "MR",
  "MultibandAccelerationFactor": 4,
  "PercentPhaseFOV": 100,
  "PhaseEncodingDirection": "j-",
  "PhaseEncodingSteps": 96,
  "PhaseResolution": 1,
  "ProcedureStepDescription": "Gobbini_Matteo_1038_hyperface",
  "ProtocolName": "func_run-05_task-localizer",
  "PulseSequenceDetails": "%SiemensSeq%_ep2d_bold",
  "ReceiveCoilActiveElements": "HEA;HEP",
  "ReceiveCoilName": "Head_32",
  "ReconMatrixPE": 96,
  "RepetitionTime": 1,
  "ScanOptions": "FS",
  "ScanningSequence": "EP",
  "SequenceName": "_epfid2d1_96",
  "SequenceVariant": "SK",
  "SeriesDescription": "func_run-05_task-localizer",
  "SliceTiming": [
    0.735,
    0,
    0.49,
    0.0825,
    0.5725,
    0.1625,
    0.6525,
    0.3275,
    0.8175,
    0.4075,
    0.8975,
    0.245,
    0.735,
    0,
    0.49,
    0.0825,
    0.5725,
    0.1625,
    0.6525,
    0.3275,
    0.8175,
    0.4075,
    0.8975,
    0.245,
    0.735,
    0,
    0.49,
    0.0825,
    0.5725,
    0.1625,
    0.6525,
    0.3275,
    0.8175,
    0.4075,
    0.8975,
    0.245,
    0.735,
    0,
    0.49,
    0.0825,
    0.5725,
    0.1625,
    0.6525,
    0.3275,
    0.8175,
    0.4075,
    0.8975,
    0.245
  ],
  "SoftwareVersions": "syngo_MR_E11",
  "StationName": "AWP66112",
  "TotalReadoutTime": 0.0522511,
  "dcmmeta_affine": [
    [
      -2.4997775554656982,
      -0.033160194754600525,
      -0.0036022448912262917,
      123.42800903320312
    ],
    [
      -0.03314701467752457,
      2.4997639656066895,
      -0.009022184647619724,
      -104.96260070800781
    ],
    [
      -0.003721575951203704,
      0.008973619900643826,
      2.499981164932251,
      -70.30608367919922
    ],
    [
      0.0,
      0.0,
      0.0,
      1.0
    ]
  ],
  "dcmmeta_reorient_transform": [
    [
      0.0,
      -1.0,
      0.0,
      95.0
    ],
    [
      1.0,
      0.0,
      0.0,
      0.0
    ],
    [
      0.0,
      0.0,
      1.0,
      0.0
    ],
    [
      0.0,
      0.0,
      0.0,
      1.0
    ]
  ],
  "dcmmeta_shape": [
    96,
    96,
    48,
    236
  ],
  "dcmmeta_slice_dim": 2,
  "dcmmeta_version": 0.6,
  "global": {
    "const": {
      "AccessionNumber": "A001155",
      "AcquisitionMatrix": [
        96,
        0,
        0,
        96
      ],
      "AngioFlag": "N",
      "BitsAllocated": 16,
      "BitsStored": 12,
      "BodyPartExamined": "BRAIN",
      "Columns": 672,
      "EchoNumbers": 1,
      "EchoTime": 33.0,
      "EchoTrainLength": 96,
      "FlipAngle": 59.0,
      "HighBit": 11,
      "ImageOrientationPatient": [
        0.99991099005893,
        0.01325880609414,
        -0.0014886303533,
        -0.0132640782678,
        0.99990558558854,
        -0.0035894479457
      ],
      "ImagePositionPatient": [
        -830.66356611711,
        -861.99333548104,
        -65.797371992466
      ],
      "ImageType": [
        "ORIGINAL",
        "PRIMARY",
        "FMRI",
        "NONE",
        "ND",
        "NORM",
        "MOSAIC"
      ],
      "ImagedNucleus": "1H",
      "ImagingFrequency": 123.252318,
      "InPlanePhaseEncodingDirection": "COL",
      "MRAcquisitionType": "2D",
      "MagneticFieldStrength": 3.0,
      "Manufacturer": "SIEMENS",
      "ManufacturerModelName": "Prisma",
      "Modality": "MR",
      "NumberOfAverages": 1.0,
      "NumberOfPhaseEncodingSteps": 96,
      "PercentPhaseFieldOfView": 100.0,
      "PercentSampling": 100.0,
      "PerformedProcedureStepStartTime": "185608.983000",
      "PhotometricInterpretation": "MONOCHROME2",
      "PixelBandwidth": 2365.0,
      "PixelRepresentation": 0,
      "PixelSpacing": [
        2.5,
        2.5
      ],
      "PositionReferenceIndicator": "",
      "ProtocolName": "func_run-05_task-localizer",
      "RepetitionTime": 1000.0,
      "Rows": 672,
      "SAR": 0.04886294896858,
      "SamplesPerPixel": 1,
      "ScanOptions": "FS",
      "ScanningSequence": "EP",
      "SequenceName": "*epfid2d1_96",
      "SequenceVariant": "SK",
      "SeriesDescription": "func_run-05_task-localizer",
      "SeriesNumber": 35,
      "SeriesTime": "193711.383000",
      "SliceLocation": -70.10460182398,
      "SliceThickness": 2.5,
      "SmallestImagePixelValue": 0,
      "SoftwareVersions": "syngo MR E11",
      "SpacingBetweenSlices": 2.499999964113,
      "SpecificCharacterSet": "ISO_IR 100",
      "StudyID": "2",
      "StudyTime": "185608.929000",
      "TransmitCoilName": "Body",
      "VariableFlipAngleFlag": "N",
      "WindowCenterWidthExplanation": "Algo1",
      "dBdt": 0.0
    },
    "slices": {}
  },
  "time": {
    "samples": {
      "AcquisitionNumber": [
        1,
        2,
        3,
        4,
        5,
        6,
        7,
        8,
        9,
        10,
        11,
        12,
        13,
        14,
        15,
        16,
        17,
        18,
        19,
        20,
        21,
        22,
        23,
        24,
        25,
        26,
        27,
        28,
        29,
        30,
        31,
        32,
        33,
        34,
        35,
        36,
        37,
        38,
        39,
        40,
        41,
        42,
        43,
        44,
        45,
        46,
        47,
        48,
        49,
        50,
        51,
        52,
        53,
        54,
        55,
        56,
        57,
        58,
        59,
        60,
        61,
        62,
        63,
        64,
        65,
        66,
        67,
        68,
        69,
        70,
        71,
        72,
        73,
        74,
        75,
        76,
        77,
        78,
        79,
        80,
        81,
        82,
        83,
        84,
        85,
        86,
        87,
        88,
        89,
        90,
        91,
        92,
        93,
        94,
        95,
        96,
        97,
        98,
        99,
        100,
        101,
        102,
        103,
        104,
        105,
        106,
        107,
        108,
        109,
        110,
        111,
        112,
        113,
        114,
        115,
        116,
        117,
        118,
        119,
        120,
        121,
        122,
        123,
        124,
        125,
        126,
        127,
        128,
        129,
        130,
        131,
        132,
        133,
        134,
        135,
        136,
        137,
        138,
        139,
        140,
        141,
        142,
        143,
        144,
        145,
        146,
        147,
        148,
        149,
        150,
        151,
        152,
        153,
        154,
        155,
        156,
        157,
        158,
        159,
        160,
        161,
        162,
        163,
        164,
        165,
        166,
        167,
        168,
        169,
        170,
        171,
        172,
        173,
        174,
        175,
        176,
        177,
        178,
        179,
        180,
        181,
        182,
        183,
        184,
        185,
        186,
        187,
        188,
        189,
        190,
        191,
        192,
        193,
        194,
        195,
        196,
        197,
        198,
        199,
        200,
        201,
        202,
        203,
        204,
        205,
        206,
        207,
        208,
        209,
        210,
        211,
        212,
        213,
        214,
        215,
        216,
        217,
        218,
        219,
        220,
        221,
        222,
        223,
        224,
        225,
        226,
        227,
        228,
        229,
        230,
        231,
        232,
        233,
        234,
        235,
        236
      ],
      "AcquisitionTime": [
        "193710.500000",
        "193711.500000",
        "193712.500000",
        "193713.500000",
        "193714.500000",
        "193715.500000",
        "193716.500000",
        "193717.500000",
        "193718.500000",
        "193719.500000",
        "193720.500000",
        "193721.500000",
        "193722.500000",
        "193723.500000",
        "193724.500000",
        "193725.500000",
        "193726.500000",
        "193727.500000",
        "193728.500000",
        "193729.500000",
        "193730.500000",
        "193731.500000",
        "193732.500000",
        "193733.500000",
        "193734.500000",
        "193735.500000",
        "193736.500000",
        "193737.500000",
        "193738.500000",
        "193739.500000",
        "193740.500000",
        "193741.500000",
        "193742.500000",
        "193743.500000",
        "193744.500000",
        "193745.500000",
        "193746.500000",
        "193747.500000",
        "193748.500000",
        "193749.500000",
        "193750.500000",
        "193751.500000",
        "193752.500000",
        "193753.500000",
        "193754.500000",
        "193755.500000",
        "193756.500000",
        "193757.500000",
        "193758.500000",
        "193759.500000",
        "193800.500000",
        "193801.500000",
        "193802.500000",
        "193803.500000",
        "193804.500000",
        "193805.500000",
        "193806.500000",
        "193807.500000",
        "193808.500000",
        "193809.500000",
        "193810.500000",
        "193811.500000",
        "193812.500000",
        "193813.500000",
        "193814.500000",
        "193815.500000",
        "193816.500000",
        "193817.500000",
        "193818.500000",
        "193819.500000",
        "193820.500000",
        "193821.500000",
        "193822.500000",
        "193823.500000",
        "193824.500000",
        "193825.500000",
        "193826.500000",
        "193827.500000",
        "193828.500000",
        "193829.500000",
        "193830.500000",
        "193831.500000",
        "193832.500000",
        "193833.500000",
        "193834.500000",
        "193835.500000",
        "193836.500000",
        "193837.500000",
        "193838.500000",
        "193839.500000",
        "193840.500000",
        "193841.500000",
        "193842.500000",
        "193843.500000",
        "193844.500000",
        "193845.500000",
        "193846.500000",
        "193847.500000",
        "193848.500000",
        "193849.500000",
        "193850.500000",
        "193851.500000",
        "193852.500000",
        "193853.500000",
        "193854.500000",
        "193855.500000",
        "193856.500000",
        "193857.500000",
        "193858.500000",
        "193859.500000",
        "193900.500000",
        "193901.500000",
        "193902.500000",
        "193903.500000",
        "193904.500000",
        "193905.500000",
        "193906.500000",
        "193907.500000",
        "193908.500000",
        "193909.500000",
        "193910.500000",
        "193911.500000",
        "193912.500000",
        "193913.500000",
        "193914.500000",
        "193915.500000",
        "193916.500000",
        "193917.500000",
        "193918.500000",
        "193919.500000",
        "193920.500000",
        "193921.500000",
        "193922.500000",
        "193923.500000",
        "193924.500000",
        "193925.500000",
        "193926.500000",
        "193927.500000",
        "193928.500000",
        "193929.500000",
        "193930.500000",
        "193931.500000",
        "193932.500000",
        "193933.500000",
        "193934.500000",
        "193935.500000",
        "193936.500000",
        "193937.500000",
        "193938.500000",
        "193939.500000",
        "193940.500000",
        "193941.500000",
        "193942.500000",
        "193943.500000",
        "193944.500000",
        "193945.500000",
        "193946.500000",
        "193947.500000",
        "193948.500000",
        "193949.500000",
        "193950.500000",
        "193951.500000",
        "193952.500000",
        "193953.500000",
        "193954.500000",
        "193955.500000",
        "193956.500000",
        "193957.500000",
        "193958.500000",
        "193959.500000",
        "194000.500000",
        "194001.500000",
        "194002.500000",
        "194003.500000",
        "194004.500000",
        "194005.500000",
        "194006.500000",
        "194007.500000",
        "194008.500000",
        "194009.500000",
        "194010.500000",
        "194011.500000",
        "194012.500000",
        "194013.500000",
        "194014.500000",
        "194015.500000",
        "194016.500000",
        "194017.500000",
        "194018.500000",
        "194019.500000",
        "194020.500000",
        "194021.500000",
        "194022.500000",
        "194023.500000",
        "194024.500000",
        "194025.500000",
        "194026.500000",
        "194027.500000",
        "194028.500000",
        "194029.500000",
        "194030.500000",
        "194031.500000",
        "194032.500000",
        "194033.500000",
        "194034.500000",
        "194035.500000",
        "194036.500000",
        "194037.500000",
        "194038.500000",
        "194039.500000",
        "194040.500000",
        "194041.500000",
        "194042.500000",
        "194043.500000",
        "194044.500000",
        "194045.500000",
        "194046.500000",
        "194047.500000",
        "194048.500000",
        "194049.500000",
        "194050.500000",
        "194051.500000",
        "194052.500000",
        "194053.500000",
        "194054.500000",
        "194055.500000",
        "194056.500000",
        "194057.500000",
        "194058.500000",
        "194059.500000",
        "194100.500000",
        "194101.500000",
        "194102.500000",
        "194103.500000",
        "194104.500000",
        "194105.500000"
      ],
      "ContentTime": [
        "193711.387000",
        "193712.212000",
        "193713.233000",
        "193714.213000",
        "193715.228000",
        "193716.212000",
        "193717.221000",
        "193718.243000",
        "193719.206000",
        "193720.230000",
        "193721.191000",
        "193722.229000",
        "193723.254000",
        "193724.258000",
        "193725.244000",
        "193726.190000",
        "193727.197000",
        "193728.201000",
        "193729.199000",
        "193730.223000",
        "193731.253000",
        "193732.242000",
        "193733.226000",
        "193734.189000",
        "193735.204000",
        "193736.206000",
        "193737.222000",
        "193738.216000",
        "193739.204000",
        "193740.214000",
        "193741.234000",
        "193742.227000",
        "193743.229000",
        "193744.267000",
        "193745.219000",
        "193746.233000",
        "193747.237000",
        "193748.245000",
        "193749.209000",
        "193750.207000",
        "193751.207000",
        "193752.206000",
        "193753.195000",
        "193754.203000",
        "193755.206000",
        "193756.199000",
        "193757.187000",
        "193758.204000",
        "193759.194000",
        "193800.211000",
        "193801.198000",
        "193802.214000",
        "193803.204000",
        "193804.182000",
        "193805.195000",
        "193806.210000",
        "193807.213000",
        "193808.211000",
        "193809.240000",
        "193810.215000",
        "193811.213000",
        "193812.220000",
        "193813.236000",
        "193814.233000",
        "193815.220000",
        "193816.246000",
        "193817.288000",
        "193818.203000",
        "193819.245000",
        "193820.223000",
        "193821.211000",
        "193822.197000",
        "193823.193000",
        "193824.241000",
        "193825.225000",
        "193826.196000",
        "193827.180000",
        "193828.195000",
        "193829.201000",
        "193830.204000",
        "193831.198000",
        "193832.221000",
        "193833.230000",
        "193834.200000",
        "193835.257000",
        "193836.213000",
        "193837.187000",
        "193838.223000",
        "193839.210000",
        "193840.220000",
        "193841.210000",
        "193842.207000",
        "193843.190000",
        "193844.218000",
        "193845.237000",
        "193846.215000",
        "193847.204000",
        "193848.241000",
        "193849.210000",
        "193850.210000",
        "193851.191000",
        "193852.201000",
        "193853.203000",
        "193854.235000",
        "193855.234000",
        "193856.235000",
        "193857.207000",
        "193858.222000",
        "193859.261000",
        "193900.224000",
        "193901.241000",
        "193902.205000",
        "193903.212000",
        "193904.188000",
        "193905.230000",
        "193906.221000",
        "193907.224000",
        "193908.224000",
        "193909.216000",
        "193910.241000",
        "193911.200000",
        "193912.243000",
        "193913.216000",
        "193914.227000",
        "193915.228000",
        "193916.189000",
        "193917.220000",
        "193918.189000",
        "193919.209000",
        "193920.229000",
        "193921.216000",
        "193922.220000",
        "193923.211000",
        "193924.233000",
        "193925.217000",
        "193926.208000",
        "193927.214000",
        "193928.168000",
        "193929.240000",
        "193930.220000",
        "193931.248000",
        "193932.220000",
        "193933.235000",
        "193934.193000",
        "193935.222000",
        "193936.217000",
        "193937.233000",
        "193938.214000",
        "193939.235000",
        "193940.222000",
        "193941.235000",
        "193942.214000",
        "193943.192000",
        "193944.203000",
        "193945.211000",
        "193946.211000",
        "193947.211000",
        "193948.217000",
        "193949.201000",
        "193950.207000",
        "193951.192000",
        "193952.229000",
        "193953.234000",
        "193954.205000",
        "193955.216000",
        "193956.238000",
        "193957.232000",
        "193958.275000",
        "193959.196000",
        "194000.220000",
        "194001.228000",
        "194002.261000",
        "194003.218000",
        "194004.214000",
        "194005.230000",
        "194006.188000",
        "194007.270000",
        "194008.194000",
        "194009.218000",
        "194010.221000",
        "194011.198000",
        "194012.249000",
        "194013.202000",
        "194014.218000",
        "194015.221000",
        "194016.251000",
        "194017.209000",
        "194018.212000",
        "194019.180000",
        "194020.266000",
        "194021.205000",
        "194022.179000",
        "194023.219000",
        "194024.219000",
        "194025.238000",
        "194026.229000",
        "194027.232000",
        "194028.226000",
        "194029.257000",
        "194030.233000",
        "194031.231000",
        "194032.230000",
        "194033.202000",
        "194034.220000",
        "194035.194000",
        "194036.232000",
        "194037.203000",
        "194038.235000",
        "194039.223000",
        "194040.246000",
        "194041.191000",
        "194042.210000",
        "194043.221000",
        "194044.171000",
        "194045.209000",
        "194046.206000",
        "194047.212000",
        "194048.222000",
        "194049.210000",
        "194050.178000",
        "194051.200000",
        "194052.191000",
        "194053.203000",
        "194054.192000",
        "194055.225000",
        "194056.242000",
        "194057.213000",
        "194058.215000",
        "194059.202000",
        "194100.208000",
        "194101.205000",
        "194102.226000",
        "194103.228000",
        "194104.235000",
        "194105.240000",
        "194106.219000"
      ],
      "InstanceCreationTime": [
        "193711.387000",
        "193712.212000",
        "193713.233000",
        "193714.213000",
        "193715.228000",
        "193716.212000",
        "193717.221000",
        "193718.243000",
        "193719.206000",
        "193720.230000",
        "193721.191000",
        "193722.229000",
        "193723.254000",
        "193724.258000",
        "193725.244000",
        "193726.190000",
        "193727.197000",
        "193728.201000",
        "193729.199000",
        "193730.223000",
        "193731.253000",
        "193732.242000",
        "193733.226000",
        "193734.189000",
        "193735.204000",
        "193736.206000",
        "193737.222000",
        "193738.216000",
        "193739.204000",
        "193740.214000",
        "193741.234000",
        "193742.227000",
        "193743.229000",
        "193744.267000",
        "193745.219000",
        "193746.233000",
        "193747.237000",
        "193748.245000",
        "193749.209000",
        "193750.207000",
        "193751.207000",
        "193752.206000",
        "193753.195000",
        "193754.203000",
        "193755.206000",
        "193756.199000",
        "193757.187000",
        "193758.204000",
        "193759.194000",
        "193800.211000",
        "193801.198000",
        "193802.214000",
        "193803.204000",
        "193804.182000",
        "193805.195000",
        "193806.210000",
        "193807.213000",
        "193808.211000",
        "193809.240000",
        "193810.215000",
        "193811.213000",
        "193812.220000",
        "193813.236000",
        "193814.233000",
        "193815.220000",
        "193816.246000",
        "193817.288000",
        "193818.203000",
        "193819.245000",
        "193820.223000",
        "193821.211000",
        "193822.197000",
        "193823.193000",
        "193824.241000",
        "193825.225000",
        "193826.196000",
        "193827.180000",
        "193828.195000",
        "193829.201000",
        "193830.204000",
        "193831.198000",
        "193832.221000",
        "193833.230000",
        "193834.200000",
        "193835.257000",
        "193836.213000",
        "193837.187000",
        "193838.223000",
        "193839.210000",
        "193840.220000",
        "193841.210000",
        "193842.207000",
        "193843.190000",
        "193844.218000",
        "193845.237000",
        "193846.215000",
        "193847.204000",
        "193848.241000",
        "193849.210000",
        "193850.210000",
        "193851.191000",
        "193852.201000",
        "193853.203000",
        "193854.235000",
        "193855.234000",
        "193856.235000",
        "193857.207000",
        "193858.222000",
        "193859.261000",
        "193900.224000",
        "193901.241000",
        "193902.205000",
        "193903.212000",
        "193904.188000",
        "193905.230000",
        "193906.221000",
        "193907.224000",
        "193908.224000",
        "193909.216000",
        "193910.241000",
        "193911.200000",
        "193912.243000",
        "193913.216000",
        "193914.227000",
        "193915.228000",
        "193916.189000",
        "193917.220000",
        "193918.189000",
        "193919.209000",
        "193920.229000",
        "193921.216000",
        "193922.220000",
        "193923.211000",
        "193924.233000",
        "193925.217000",
        "193926.208000",
        "193927.214000",
        "193928.168000",
        "193929.240000",
        "193930.220000",
        "193931.248000",
        "193932.220000",
        "193933.235000",
        "193934.193000",
        "193935.222000",
        "193936.217000",
        "193937.233000",
        "193938.214000",
        "193939.235000",
        "193940.222000",
        "193941.235000",
        "193942.214000",
        "193943.192000",
        "193944.203000",
        "193945.211000",
        "193946.211000",
        "193947.211000",
        "193948.217000",
        "193949.201000",
        "193950.207000",
        "193951.192000",
        "193952.229000",
        "193953.234000",
        "193954.205000",
        "193955.216000",
        "193956.238000",
        "193957.232000",
        "193958.275000",
        "193959.196000",
        "194000.220000",
        "194001.228000",
        "194002.261000",
        "194003.218000",
        "194004.214000",
        "194005.230000",
        "194006.188000",
        "194007.270000",
        "194008.194000",
        "194009.218000",
        "194010.221000",
        "194011.198000",
        "194012.249000",
        "194013.202000",
        "194014.218000",
        "194015.221000",
        "194016.251000",
        "194017.209000",
        "194018.212000",
        "194019.180000",
        "194020.266000",
        "194021.205000",
        "194022.179000",
        "194023.219000",
        "194024.219000",
        "194025.238000",
        "194026.229000",
        "194027.232000",
        "194028.226000",
        "194029.257000",
        "194030.233000",
        "194031.231000",
        "194032.230000",
        "194033.202000",
        "194034.220000",
        "194035.194000",
        "194036.232000",
        "194037.203000",
        "194038.235000",
        "194039.223000",
        "194040.246000",
        "194041.191000",
        "194042.210000",
        "194043.221000",
        "194044.171000",
        "194045.209000",
        "194046.206000",
        "194047.212000",
        "194048.222000",
        "194049.210000",
        "194050.178000",
        "194051.200000",
        "194052.191000",
        "194053.203000",
        "194054.192000",
        "194055.225000",
        "194056.242000",
        "194057.213000",
        "194058.215000",
        "194059.202000",
        "194100.208000",
        "194101.205000",
        "194102.226000",
        "194103.228000",
        "194104.235000",
        "194105.240000",
        "194106.219000"
      ],
      "InstanceNumber": [
        1,
        2,
        3,
        4,
        5,
        6,
        7,
        8,
        9,
        10,
        11,
        12,
        13,
        14,
        15,
        16,
        17,
        18,
        19,
        20,
        21,
        22,
        23,
        24,
        25,
        26,
        27,
        28,
        29,
        30,
        31,
        32,
        33,
        34,
        35,
        36,
        37,
        38,
        39,
        40,
        41,
        42,
        43,
        44,
        45,
        46,
        47,
        48,
        49,
        50,
        51,
        52,
        53,
        54,
        55,
        56,
        57,
        58,
        59,
        60,
        61,
        62,
        63,
        64,
        65,
        66,
        67,
        68,
        69,
        70,
        71,
        72,
        73,
        74,
        75,
        76,
        77,
        78,
        79,
        80,
        81,
        82,
        83,
        84,
        85,
        86,
        87,
        88,
        89,
        90,
        91,
        92,
        93,
        94,
        95,
        96,
        97,
        98,
        99,
        100,
        101,
        102,
        103,
        104,
        105,
        106,
        107,
        108,
        109,
        110,
        111,
        112,
        113,
        114,
        115,
        116,
        117,
        118,
        119,
        120,
        121,
        122,
        123,
        124,
        125,
        126,
        127,
        128,
        129,
        130,
        131,
        132,
        133,
        134,
        135,
        136,
        137,
        138,
        139,
        140,
        141,
        142,
        143,
        144,
        145,
        146,
        147,
        148,
        149,
        150,
        151,
        152,
        153,
        154,
        155,
        156,
        157,
        158,
        159,
        160,
        161,
        162,
        163,
        164,
        165,
        166,
        167,
        168,
        169,
        170,
        171,
        172,
        173,
        174,
        175,
        176,
        177,
        178,
        179,
        180,
        181,
        182,
        183,
        184,
        185,
        186,
        187,
        188,
        189,
        190,
        191,
        192,
        193,
        194,
        195,
        196,
        197,
        198,
        199,
        200,
        201,
        202,
        203,
        204,
        205,
        206,
        207,
        208,
        209,
        210,
        211,
        212,
        213,
        214,
        215,
        216,
        217,
        218,
        219,
        220,
        221,
        222,
        223,
        224,
        225,
        226,
        227,
        228,
        229,
        230,
        231,
        232,
        233,
        234,
        235,
        236
      ],
      "LargestImagePixelValue": [
        1165,
        867,
        1038,
        892,
        1133,
        1332,
        1056,
        888,
        1127,
        1359,
        1156,
        801,
        1081,
        1263,
        1128,
        802,
        992,
        1117,
        1250,
        958,
        746,
        1030,
        1359,
        1157,
        760,
        979,
        1066,
        1249,
        969,
        918,
        825,
        1412,
        1204,
        842,
        836,
        1062,
        1162,
        1269,
        1092,
        924,
        838,
        1182,
        1320,
        1119,
        799,
        1006,
        1356,
        1126,
        855,
        899,
        1370,
        1075,
        735,
