{
  "AcquisitionMatrixPE": 96,
  "AcquisitionNumber": 1,
  "BandwidthPerPixelPhaseEncode": 18.939,
  "BaseResolution": 96,
  "BodyPartExamined": "BRAIN",
  "ConsistencyInfo": "N4_VE11C_LATEST_20160120",
  "ConversionSoftware": "dcm2niix",
  "ConversionSoftwareVersion": "v1.0.20170923 (OpenJPEG build) GCC6.3.0",
  "DerivedVendorReportedEchoSpacing": 0.000550011,
  "DeviceSerialNumber": "66112",
  "DwellTime": 2.2e-06,
  "EchoTime": 0.033,
  "EchoTrainLength": 96,
  "EffectiveEchoSpacing": 0.000550011,
  "FlipAngle": 59,
  "ImageType": [
    "ORIGINAL",
    "PRIMARY",
    "FMRI",
    "NONE",
    "ND",
    "NORM",
    "MOSAIC"
  ],
  "InstitutionAddress": "Maynard_3_Hanover_NH_US_03755",
  "InstitutionName": "Dartmouth_College_-_PBS",
  "MagneticFieldStrength": 3,
  "Manufacturer": "Siemens",
  "ManufacturersModelName": "Prisma",
  "Modality": "MR",
  "MultibandAccelerationFactor": 4,
  "PartialFourier": 1,
  "PercentPhaseFOV": 100,
  "PhaseEncodingDirection": "j-",
  "PhaseEncodingSteps": 96,
  "PhaseResolution": 1,
  "ProcedureStepDescription": "Gobbini_Matteo_1038_hyperface",
  "ProtocolName": "func_run-07_task-visualmemory",
  "PulseSequenceDetails": "%SiemensSeq%_ep2d_bold",
  "ReceiveCoilActiveElements": "HEA;HEP",
  "ReceiveCoilName": "Head_32",
  "ReconMatrixPE": 96,
  "RepetitionTime": 1,
  "ScanOptions": "FS",
  "ScanningSequence": "EP",
  "SequenceName": "_epfid2d1_96",
  "SequenceVariant": "SK",
  "SeriesDescription": "func_run-07_task-visualmemory",
  "SliceTiming": [
    0.735,
    0,
    0.49,
    0.0825,
    0.5725,
    0.1625,
    0.6525,
    0.3275,
    0.8175,
    0.4075,
    0.8975,
    0.245,
    0.735,
    0,
    0.49,
    0.0825,
    0.5725,
    0.1625,
    0.6525,
    0.3275,
    0.8175,
    0.4075,
    0.8975,
    0.245,
    0.735,
    0,
    0.49,
    0.0825,
    0.5725,
    0.1625,
    0.6525,
    0.3275,
    0.8175,
    0.4075,
    0.8975,
    0.245,
    0.735,
    0,
    0.49,
    0.0825,
    0.5725,
    0.1625,
    0.6525,
    0.3275,
    0.8175,
    0.4075,
    0.8975,
    0.245
  ],
  "SoftwareVersions": "syngo_MR_E11",
  "StationName": "AWP66112",
  "TotalReadoutTime": 0.0522511,
  "time": {
    "samples": {
      "AcquisitionNumber": [
        1,
        2,
        3,
        4,
        5,
        6,
        7,
        8,
        9,
        10,
        11,
        12,
        13,
        14,
        15,
        16,
        17,
        18,
        19,
        20,
        21,
        22,
        23,
        24,
        25,
        26,
        27,
        28,
        29,
        30,
        31,
        32,
        33,
        34,
        35,
        36,
        37,
        38,
        39,
        40,
        41,
        42,
        43,
        44,
        45,
        46,
        47,
        48,
        49,
        50,
        51,
        52,
        53,
        54,
        55,
        56,
        57,
        58,
        59,
        60,
        61,
        62,
        63,
        64,
        65,
        66,
        67,
        68,
        69,
        70,
        71,
        72,
        73,
        74,
        75,
        76,
        77,
        78,
        79,
        80,
        81,
        82,
        83,
        84,
        85,
        86,
        87,
        88,
        89,
        90,
        91,
        92,
        93,
        94,
        95,
        96,
        97,
        98,
        99,
        100,
        101,
        102,
        103,
        104,
        105,
        106,
        107,
        108,
        109,
        110,
        111,
        112,
        113,
        114,
        115,
        116,
        117,
        118,
        119,
        120,
        121,
        122,
        123,
        124,
        125,
        126,
        127,
        128,
        129,
        130,
        131,
        132,
        133,
        134,
        135,
        136,
        137,
        138,
        139,
        140,
        141,
        142,
        143,
        144,
        145,
        146,
        147,
        148,
        149,
        150,
        151,
        152,
        153,
        154,
        155,
        156,
        157,
        158,
        159,
        160,
        161,
        162,
        163,
        164,
        165,
        166,
        167,
        168,
        169,
        170,
        171,
        172,
        173,
        174,
        175,
        176,
        177,
        178,
        179,
        180,
        181,
        182,
        183,
        184,
        185,
        186,
        187,
        188,
        189,
        190,
        191,
        192,
        193,
        194,
        195,
        196,
        197,
        198,
        199,
        200,
        201,
        202,
        203,
        204,
        205,
        206,
        207,
        208,
        209,
        210,
        211,
        212,
        213,
        214,
        215,
        216,
        217,
        218,
        219,
        220,
        221,
        222,
        223,
        224,
        225,
        226,
        227,
        228,
        229,
        230,
        231,
        232,
        233,
        234,
        235,
        236,
        237,
        238,
        239,
        240,
        241,
        242,
        243,
        244,
        245,
        246,
        247,
        248,
        249,
        250,
        251,
        252,
        253,
        254,
        255,
        256,
        257,
        258,
        259,
        260,
        261,
        262,
        263,
        264,
        265,
        266,
        267,
        268,
        269,
        270,
        271,
        272,
        273,
        274,
        275,
        276,
        277,
        278,
        279,
        280,
        281,
        282,
        283,
        284,
        285,
        286,
        287,
        288
      ],
      "AcquisitionTime": [
        "175328.277500",
        "175329.277500",
        "175330.277500",
        "175331.277500",
        "175332.277500",
        "175333.277500",
        "175334.277500",
        "175335.277500",
        "175336.277500",
        "175337.277500",
        "175338.277500",
        "175339.277500",
        "175340.277500",
        "175341.277500",
        "175342.277500",
        "175343.277500",
        "175344.277500",
        "175345.277500",
        "175346.277500",
        "175347.277500",
        "175348.277500",
        "175349.277500",
        "175350.277500",
        "175351.277500",
        "175352.277500",
        "175353.277500",
        "175354.277500",
        "175355.277500",
        "175356.277500",
        "175357.277500",
        "175358.277500",
        "175359.277500",
        "175400.277500",
        "175401.277500",
        "175402.277500",
        "175403.277500",
        "175404.277500",
        "175405.277500",
        "175406.277500",
        "175407.277500",
        "175408.277500",
        "175409.277500",
        "175410.277500",
        "175411.277500",
        "175412.277500",
        "175413.277500",
        "175414.277500",
        "175415.277500",
        "175416.277500",
        "175417.277500",
        "175418.277500",
        "175419.277500",
        "175420.277500",
        "175421.277500",
        "175422.277500",
        "175423.277500",
        "175424.277500",
        "175425.277500",
        "175426.277500",
        "175427.277500",
        "175428.277500",
        "175429.277500",
        "175430.277500",
        "175431.277500",
        "175432.277500",
        "175433.277500",
        "175434.277500",
        "175435.277500",
        "175436.277500",
        "175437.277500",
        "175438.277500",
        "175439.277500",
        "175440.277500",
        "175441.277500",
        "175442.277500",
        "175443.277500",
        "175444.277500",
        "175445.277500",
        "175446.277500",
        "175447.277500",
        "175448.277500",
        "175449.277500",
        "175450.277500",
        "175451.277500",
        "175452.277500",
        "175453.277500",
        "175454.277500",
        "175455.277500",
        "175456.277500",
        "175457.277500",
        "175458.277500",
        "175459.277500",
        "175500.277500",
        "175501.277500",
        "175502.277500",
        "175503.277500",
        "175504.277500",
        "175505.277500",
        "175506.277500",
        "175507.277500",
        "175508.277500",
        "175509.277500",
        "175510.277500",
        "175511.277500",
        "175512.277500",
        "175513.277500",
        "175514.277500",
        "175515.277500",
        "175516.277500",
        "175517.277500",
        "175518.277500",
        "175519.277500",
        "175520.277500",
        "175521.277500",
        "175522.277500",
        "175523.277500",
        "175524.277500",
        "175525.277500",
        "175526.277500",
        "175527.277500",
        "175528.277500",
        "175529.277500",
        "175530.277500",
        "175531.277500",
        "175532.277500",
        "175533.277500",
        "175534.277500",
        "175535.277500",
        "175536.277500",
        "175537.277500",
        "175538.277500",
        "175539.277500",
        "175540.277500",
        "175541.277500",
        "175542.277500",
        "175543.277500",
        "175544.277500",
        "175545.277500",
        "175546.277500",
        "175547.277500",
        "175548.277500",
        "175549.277500",
        "175550.277500",
        "175551.277500",
        "175552.277500",
        "175553.277500",
        "175554.277500",
        "175555.277500",
        "175556.277500",
        "175557.277500",
        "175558.277500",
        "175559.277500",
        "175600.277500",
        "175601.277500",
        "175602.277500",
        "175603.277500",
        "175604.277500",
        "175605.277500",
        "175606.277500",
        "175607.277500",
        "175608.277500",
        "175609.277500",
        "175610.277500",
        "175611.277500",
        "175612.277500",
        "175613.277500",
        "175614.277500",
        "175615.277500",
        "175616.277500",
        "175617.277500",
        "175618.277500",
        "175619.277500",
        "175620.277500",
        "175621.277500",
        "175622.277500",
        "175623.277500",
        "175624.277500",
        "175625.277500",
        "175626.277500",
        "175627.277500",
        "175628.277500",
        "175629.277500",
        "175630.277500",
        "175631.277500",
        "175632.277500",
        "175633.277500",
        "175634.277500",
        "175635.277500",
        "175636.277500",
        "175637.277500",
        "175638.277500",
        "175639.277500",
        "175640.277500",
        "175641.277500",
        "175642.277500",
        "175643.277500",
        "175644.277500",
        "175645.277500",
        "175646.277500",
        "175647.277500",
        "175648.277500",
        "175649.277500",
        "175650.277500",
        "175651.277500",
        "175652.277500",
        "175653.277500",
        "175654.277500",
        "175655.277500",
        "175656.277500",
        "175657.277500",
        "175658.277500",
        "175659.277500",
        "175700.277500",
        "175701.277500",
        "175702.277500",
        "175703.277500",
        "175704.277500",
        "175705.277500",
        "175706.277500",
        "175707.277500",
        "175708.277500",
        "175709.277500",
        "175710.277500",
        "175711.277500",
        "175712.277500",
        "175713.277500",
        "175714.277500",
        "175715.277500",
        "175716.277500",
        "175717.277500",
        "175718.277500",
        "175719.277500",
        "175720.277500",
        "175721.277500",
        "175722.277500",
        "175723.277500",
        "175724.277500",
        "175725.277500",
        "175726.277500",
        "175727.277500",
        "175728.277500",
        "175729.277500",
        "175730.277500",
        "175731.277500",
        "175732.277500",
        "175733.277500",
        "175734.277500",
        "175735.277500",
        "175736.277500",
        "175737.277500",
        "175738.277500",
        "175739.277500",
        "175740.277500",
        "175741.277500",
        "175742.277500",
        "175743.277500",
        "175744.277500",
        "175745.277500",
        "175746.277500",
        "175747.277500",
        "175748.277500",
        "175749.277500",
        "175750.277500",
        "175751.277500",
        "175752.277500",
        "175753.277500",
        "175754.277500",
        "175755.277500",
        "175756.277500",
        "175757.277500",
        "175758.277500",
        "175759.277500",
        "175800.277500",
        "175801.277500",
        "175802.277500",
        "175803.277500",
        "175804.277500",
        "175805.277500",
        "175806.277500",
        "175807.277500",
        "175808.277500",
        "175809.277500",
        "175810.277500",
        "175811.277500",
        "175812.277500",
        "175813.277500",
        "175814.277500",
        "175815.277500"
      ],
      "ContentTime": [
        "175329.221000",
        "175330.029000",
        "175331.044000",
        "175332.044000",
        "175333.051000",
        "175334.016000",
        "175335.039000",
        "175336.045000",
        "175337.023000",
        "175338.052000",
        "175339.048000",
        "175340.057000",
        "175341.040000",
        "175342.030000",
        "175343.045000",
        "175344.048000",
        "175345.029000",
        "175346.022000",
        "175347.026000",
        "175348.030000",
        "175349.043000",
        "175350.045000",
        "175351.070000",
        "175352.022000",
        "175353.019000",
        "175354.034000",
        "175355.033000",
        "175356.026000",
        "175357.072000",
        "175358.053000",
        "175359.008000",
        "175400.047000",
        "175401.068000",
        "175402.048000",
        "175403.058000",
        "175404.038000",
        "175405.034000",
        "175406.055000",
        "175407.055000",
        "175408.072000",
        "175409.044000",
        "175410.029000",
        "175411.037000",
        "175412.096000",
        "175413.070000",
        "175414.049000",
        "175415.015000",
        "175416.049000",
        "175417.063000",
        "175418.025000",
        "175419.030000",
        "175420.011000",
        "175421.017000",
        "175422.033000",
        "175423.020000",
        "175424.047000",
        "175425.052000",
        "175426.031000",
        "175427.000000",
        "175428.028000",
        "175429.019000",
        "175430.034000",
        "175431.054000",
        "175432.040000",
        "175433.046000",
        "175434.063000",
        "175435.031000",
        "175436.045000",
        "175437.044000",
        "175438.032000",
        "175439.076000",
        "175440.063000",
        "175441.026000",
        "175442.027000",
        "175443.056000",
        "175444.075000",
        "175445.099000",
        "175446.065000",
        "175447.034000",
        "175448.050000",
        "175449.018000",
        "175450.064000",
        "175451.074000",
        "175452.043000",
        "175453.067000",
        "175454.003000",
        "175455.034000",
        "175456.049000",
        "175457.022000",
        "175458.018000",
        "175459.024000",
        "175500.013000",
        "175501.046000",
        "175502.047000",
        "175503.018000",
        "175504.049000",
        "175505.018000",
        "175506.031000",
        "175507.064000",
        "175508.079000",
        "175509.092000",
        "175510.045000",
        "175511.062000",
        "175512.035000",
        "175513.038000",
        "175514.022000",
        "175515.021000",
        "175516.018000",
        "175517.033000",
        "175518.047000",
        "175519.043000",
        "175520.049000",
        "175521.029000",
        "175522.012000",
        "175523.045000",
        "175524.027000",
        "175525.014000",
        "175526.054000",
        "175527.047000",
        "175528.040000",
        "175529.053000",
        "175530.065000",
        "175531.048000",
        "175532.037000",
        "175533.053000",
        "175534.040000",
        "175535.061000",
        "175536.050000",
        "175537.046000",
        "175538.075000",
        "175539.089000",
        "175540.041000",
        "175541.049000",
        "175542.031000",
        "175543.030000",
        "175544.029000",
        "175545.030000",
        "175546.039000",
        "175547.041000",
        "175548.053000",
        "175549.025000",
        "175550.062000",
        "175551.052000",
        "175552.027000",
        "175553.066000",
        "175554.026000",
        "175555.035000",
        "175556.112000",
        "175557.042000",
        "175558.069000",
        "175559.037000",
        "175600.051000",
        "175601.029000",
        "175602.015000",
        "175603.029000",
        "175604.019000",
        "175605.029000",
        "175606.043000",
        "175607.028000",
        "175608.019000",
        "175609.040000",
        "175610.042000",
        "175611.064000",
        "175612.032000",
        "175613.048000",
        "175614.027000",
        "175615.044000",
        "175616.067000",
        "175617.074000",
        "175618.033000",
        "175619.054000",
        "175620.049000",
        "175621.050000",
        "175622.058000",
        "175623.021000",
        "175624.016000",
        "175625.027000",
        "175626.052000",
        "175627.024000",
        "175628.062000",
        "175629.050000",
        "175630.041000",
        "175631.065000",
        "175632.045000",
        "175633.064000",
        "175634.030000",
        "175635.048000",
        "175636.057000",
        "175637.035000",
        "175638.057000",
        "175639.029000",
        "175640.047000",
        "175641.044000",
        "175642.018000",
        "175643.021000",
        "175644.020000",
        "175645.023000",
        "175646.040000",
        "175647.087000",
        "175648.055000",
        "175649.028000",
        "175650.035000",
        "175651.071000",
        "175652.013000",
        "175653.033000",
        "175654.032000",
        "175655.024000",
        "175656.044000",
        "175657.044000",
        "175658.074000",
        "175659.027000",
        "175700.056000",
        "175701.038000",
        "175702.048000",
        "175703.034000",
        "175704.063000",
        "175705.044000",
        "175706.024000",
        "175707.073000",
        "175708.111000",
        "175709.069000",
        "175710.038000",
        "175711.062000",
        "175712.052000",
        "175713.027000",
        "175714.031000",
        "175715.022000",
        "175716.048000",
        "175717.035000",
        "175718.016000",
        "175719.039000",
        "175720.039000",
        "175721.036000",
        "175722.055000",
        "175723.006000",
        "175724.032000",
        "175724.997000",
        "175726.054000",
        "175727.075000",
        "175728.087000",
        "175729.028000",
        "175730.031000",
        "175731.052000",
        "175732.050000",
        "175733.003000",
        "175734.034000",
        "175735.019000",
        "175736.025000",
        "175737.086000",
        "175738.004000",
        "175739.042000",
        "175740.055000",
        "175741.045000",
        "175742.021000",
        "175743.038000",
        "175744.039000",
        "175745.035000",
        "175746.034000",
        "175747.035000",
        "175748.055000",
        "175749.044000",
        "175750.025000",
        "175751.096000",
        "175752.018000",
        "175753.046000",
        "175754.075000",
        "175755.026000",
        "175756.059000",
        "175757.055000",
        "175758.013000",
        "175759.052000",
        "175800.018000",
        "175801.032000",
        "175802.034000",
        "175803.060000",
        "175804.025000",
        "175805.042000",
        "175806.035000",
        "175807.037000",
        "175808.035000",
        "175809.006000",
        "175810.031000",
        "175811.037000",
        "175812.021000",
        "175813.045000",
        "175814.028000",
        "175815.025000",
        "175816.062000"
      ],
      "InstanceCreationTime": [
        "175329.221000",
        "175330.029000",
        "175331.044000",
        "175332.044000",
        "175333.051000",
        "175334.016000",
        "175335.039000",
        "175336.045000",
        "175337.023000",
        "175338.052000",
        "175339.048000",
        "175340.057000",
        "175341.040000",
        "175342.030000",
        "175343.045000",
        "175344.048000",
        "175345.029000",
        "175346.022000",
        "175347.026000",
        "175348.030000",
        "175349.043000",
        "175350.045000",
        "175351.070000",
        "175352.022000",
        "175353.019000",
        "175354.034000",
        "175355.033000",
        "175356.026000",
        "175357.072000",
        "175358.053000",
        "175359.008000",
        "175400.047000",
        "175401.068000",
        "175402.048000",
        "175403.058000",
        "175404.038000",
        "175405.034000",
        "175406.055000",
        "175407.055000",
        "175408.072000",
        "175409.044000",
        "175410.029000",
        "175411.037000",
        "175412.096000",
        "175413.070000",
        "175414.049000",
        "175415.015000",
        "175416.049000",
        "175417.063000",
        "175418.025000",
        "175419.030000",
        "175420.011000",
        "175421.017000",
        "175422.033000",
        "175423.020000",
        "175424.047000",
        "175425.052000",
        "175426.031000",
        "175427.000000",
        "175428.028000",
        "175429.019000",
        "175430.034000",
        "175431.054000",
        "175432.040000",
        "175433.046000",
        "175434.063000",
        "175435.031000",
        "175436.045000",
        "175437.044000",
        "175438.032000",
        "175439.076000",
        "175440.063000",
        "175441.026000",
        "175442.027000",
        "175443.056000",
        "175444.075000",
        "175445.099000",
        "175446.065000",
        "175447.034000",
        "175448.050000",
        "175449.018000",
        "175450.064000",
        "175451.074000",
        "175452.043000",
        "175453.067000",
        "175454.003000",
        "175455.034000",
        "175456.049000",
        "175457.022000",
        "175458.018000",
        "175459.024000",
        "175500.013000",
        "175501.046000",
        "175502.047000",
        "175503.018000",
        "175504.049000",
        "175505.018000",
        "175506.031000",
        "175507.064000",
        "175508.079000",
        "175509.092000",
        "175510.045000",
        "175511.062000",
        "175512.035000",
        "175513.038000",
        "175514.022000",
        "175515.021000",
        "175516.018000",
        "175517.033000",
        "175518.047000",
        "175519.043000",
        "175520.049000",
        "175521.029000",
        "175522.012000",
        "175523.045000",
        "175524.027000",
        "175525.014000",
        "175526.054000",
        "175527.047000",
        "175528.040000",
        "175529.053000",
        "175530.065000",
        "175531.048000",
        "175532.037000",
        "175533.053000",
        "175534.040000",
        "175535.061000",
        "175536.050000",
        "175537.046000",
        "175538.075000",
        "175539.089000",
        "175540.041000",
        "175541.049000",
        "175542.031000",
        "175543.030000",
        "175544.029000",
        "175545.030000",
        "175546.039000",
        "175547.041000",
        "175548.053000",
        "175549.025000",
        "175550.062000",
        "175551.052000",
        "175552.027000",
        "175553.066000",
        "175554.026000",
        "175555.035000",
        "175556.112000",
        "175557.042000",
        "175558.069000",
        "175559.037000",
        "175600.051000",
        "175601.029000",
        "175602.015000",
        "175603.029000",
        "175604.019000",
        "175605.029000",
        "175606.043000",
        "175607.028000",
        "175608.019000",
        "175609.040000",
        "175610.042000",
        "175611.064000",
        "175612.032000",
        "175613.048000",
        "175614.027000",
        "175615.044000",
        "175616.067000",
        "175617.074000",
        "175618.033000",
        "175619.054000",
        "175620.049000",
        "175621.050000",
        "175622.058000",
        "175623.021000",
        "175624.016000",
        "175625.027000",
        "175626.052000",
        "175627.024000",
        "175628.062000",
        "175629.050000",
        "175630.041000",
        "175631.065000",
        "175632.045000",
        "175633.064000",
        "175634.030000",
        "175635.048000",
        "175636.057000",
        "175637.035000",
        "175638.057000",
        "175639.029000",
        "175640.047000",
        "175641.044000",
        "175642.018000",
        "175643.021000",
        "175644.020000",
        "175645.023000",
        "175646.040000",
        "175647.087000",
        "175648.055000",
        "175649.028000",
        "175650.035000",
        "175651.071000",
        "175652.013000",
        "175653.033000",
        "175654.032000",
        "175655.024000",
        "175656.044000",
        "175657.044000",
        "175658.074000",
        "175659.027000",
        "175700.056000",
        "175701.038000",
        "175702.048000",
        "175703.034000",
        "175704.063000",
        "175705.044000",
        "175706.024000",
        "175707.073000",
        "175708.111000",
        "175709.069000",
        "175710.038000",
        "175711.062000",
        "175712.052000",
        "175713.027000",
        "175714.031000",
        "175715.022000",
        "175716.048000",
        "175717.035000",
        "175718.016000",
        "175719.039000",
        "175720.039000",
        "175721.036000",
        "175722.055000",
        "175723.006000",
        "175724.032000",
        "175724.997000",
        "175726.054000",
        "175727.075000",
        "175728.087000",
        "175729.028000",
        "175730.031000",
        "175731.052000",
        "175732.050000",
        "175733.003000",
        "175734.034000",
        "175735.019000",
        "175736.025000",
        "175737.086000",
        "175738.004000",
        "175739.042000",
        "175740.055000",
        "175741.045000",
        "175742.021000",
        "175743.038000",
        "175744.039000",
        "175745.035000",
        "175746.034000",
        "175747.035000",
        "175748.055000",
        "175749.044000",
        "175750.025000",
        "175751.096000",
        "175752.018000",
        "175753.046000",
        "175754.075000",
        "175755.026000",
        "175756.059000",
        "175757.055000",
        "175758.013000",
        "175759.052000",
        "175800.018000",
        "175801.032000",
        "175802.034000",
        "175803.060000",
        "175804.025000",
        "175805.042000",
        "175806.035000",
        "175807.037000",
        "175808.035000",
        "175809.006000",
        "175810.031000",
        "175811.037000",
        "175812.021000",
        "175813.045000",
        "175814.028000",
        "175815.025000",
        "175816.062000"
      ],
      "InstanceNumber": [
        1,
        2,
        3,
        4,
        5,
        6,
        7,
        8,
        9,
        10,
        11,
        12,
        13,
        14,
        15,
        16,
        17,
        18,
        19,
        20,
        21,
        22,
        23,
        24,
        25,
        26,
        27,
        28,
        29,
        30,
        31,
        32,
        33,
        34,
        35,
        36,
        37,
        38,
        39,
        40,
        41,
        42,
        43,
        44,
        45,
        46,
        47,
        48,
        49,
        50,
        51,
        52,
        53,
        54,
        55,
        56,
        57,
        58,
        59,
        60,
        61,
        62,
        63,
        64,
        65,
        66,
        67,
        68,
        69,
        70,
        71,
        72,
        73,
        74,
        75,
        76,
        77,
        78,
        79,
        80,
        81,
        82,
        83,
        84,
        85,
        86,
        87,
        88,
        89,
        90,
        91,
        92,
        93,
        94,
        95,
        96,
        97,
        98,
        99,
        100,
        101,
        102,
        103,
        104,
        105,
        106,
        107,
        108,
        109,
        110,
        111,
        112,
        113,
        114,
        115,
        116,
        117,
        118,
        119,
        120,
        121,
        122,
        123,
        124,
        125,
        126,
        127,
        128,
        129,
        130,
        131,
        132,
        133,
        134,
        135,
        136,
        137,
        138,
        139,
        140,
        141,
        142,
        143,
        144,
        145,
        146,
        147,
        148,
        149,
        150,
        151,
        152,
        153,
        154,
        155,
        156,
        157,
        158,
        159,
        160,
        161,
        162,
        163,
        164,
        165,
        166,
        167,
        168,
        169,
        170,
        171,
        172,
        173,
        174,
        175,
        176,
        177,
        178,
        179,
        180,
        181,
        182,
        183,
        184,
        185,
        186,
        187,
        188,
        189,
        190,
        191,
        192,
        193,
        194,
