{
  "AcquisitionMatrixPE": 96,
  "AcquisitionNumber": 1,
  "BandwidthPerPixelPhaseEncode": 18.939,
  "BaseResolution": 96,
  "BodyPartExamined": "BRAIN",
  "ConsistencyInfo": "N4_VE11C_LATEST_20160120",
  "ConversionSoftware": "dcm2niix",
  "ConversionSoftwareVersion": "v1.0.20170923 (OpenJPEG build) GCC6.3.0",
  "DerivedVendorReportedEchoSpacing": 0.000550011,
  "DeviceSerialNumber": "66112",
  "DwellTime": 2.2e-06,
  "EchoTime": 0.033,
  "EchoTrainLength": 96,
  "EffectiveEchoSpacing": 0.000550011,
  "FlipAngle": 59,
  "ImageType": [
    "ORIGINAL",
    "PRIMARY",
    "FMRI",
    "NONE",
    "ND",
    "NORM",
    "MOSAIC"
  ],
  "InstitutionAddress": "Maynard_3_Hanover_NH_US_03755",
  "InstitutionName": "Dartmouth_College_-_PBS",
  "MagneticFieldStrength": 3,
  "Manufacturer": "Siemens",
  "ManufacturersModelName": "Prisma",
  "Modality": "MR",
  "MultibandAccelerationFactor": 4,
  "PartialFourier": 1,
  "PercentPhaseFOV": 100,
  "PhaseEncodingDirection": "j-",
  "PhaseEncodingSteps": 96,
  "PhaseResolution": 1,
  "ProcedureStepDescription": "Gobbini_Matteo_1038_hyperface",
  "ProtocolName": "func_run-06_task-visualmemory",
  "PulseSequenceDetails": "%SiemensSeq%_ep2d_bold",
  "ReceiveCoilActiveElements": "HEA;HEP",
  "ReceiveCoilName": "Head_32",
  "ReconMatrixPE": 96,
  "RepetitionTime": 1,
  "ScanOptions": "FS",
  "ScanningSequence": "EP",
  "SequenceName": "_epfid2d1_96",
  "SequenceVariant": "SK",
  "SeriesDescription": "func_run-06_task-visualmemory",
  "SliceTiming": [
    0.735,
    0,
    0.49,
    0.0825,
    0.5725,
    0.1625,
    0.6525,
    0.3275,
    0.8175,
    0.4075,
    0.8975,
    0.245,
    0.735,
    0,
    0.49,
    0.0825,
    0.5725,
    0.1625,
    0.6525,
    0.3275,
    0.8175,
    0.4075,
    0.8975,
    0.245,
    0.735,
    0,
    0.49,
    0.0825,
    0.5725,
    0.1625,
    0.6525,
    0.3275,
    0.8175,
    0.4075,
    0.8975,
    0.245,
    0.735,
    0,
    0.49,
    0.0825,
    0.5725,
    0.1625,
    0.6525,
    0.3275,
    0.8175,
    0.4075,
    0.8975,
    0.245
  ],
  "SoftwareVersions": "syngo_MR_E11",
  "StationName": "AWP66112",
  "TotalReadoutTime": 0.0522511,
  "time": {
    "samples": {
      "AcquisitionNumber": [
        1,
        2,
        3,
        4,
        5,
        6,
        7,
        8,
        9,
        10,
        11,
        12,
        13,
        14,
        15,
        16,
        17,
        18,
        19,
        20,
        21,
        22,
        23,
        24,
        25,
        26,
        27,
        28,
        29,
        30,
        31,
        32,
        33,
        34,
        35,
        36,
        37,
        38,
        39,
        40,
        41,
        42,
        43,
        44,
        45,
        46,
        47,
        48,
        49,
        50,
        51,
        52,
        53,
        54,
        55,
        56,
        57,
        58,
        59,
        60,
        61,
        62,
        63,
        64,
        65,
        66,
        67,
        68,
        69,
        70,
        71,
        72,
        73,
        74,
        75,
        76,
        77,
        78,
        79,
        80,
        81,
        82,
        83,
        84,
        85,
        86,
        87,
        88,
        89,
        90,
        91,
        92,
        93,
        94,
        95,
        96,
        97,
        98,
        99,
        100,
        101,
        102,
        103,
        104,
        105,
        106,
        107,
        108,
        109,
        110,
        111,
        112,
        113,
        114,
        115,
        116,
        117,
        118,
        119,
        120,
        121,
        122,
        123,
        124,
        125,
        126,
        127,
        128,
        129,
        130,
        131,
        132,
        133,
        134,
        135,
        136,
        137,
        138,
        139,
        140,
        141,
        142,
        143,
        144,
        145,
        146,
        147,
        148,
        149,
        150,
        151,
        152,
        153,
        154,
        155,
        156,
        157,
        158,
        159,
        160,
        161,
        162,
        163,
        164,
        165,
        166,
        167,
        168,
        169,
        170,
        171,
        172,
        173,
        174,
        175,
        176,
        177,
        178,
        179,
        180,
        181,
        182,
        183,
        184,
        185,
        186,
        187,
        188,
        189,
        190,
        191,
        192,
        193,
        194,
        195,
        196,
        197,
        198,
        199,
        200,
        201,
        202,
        203,
        204,
        205,
        206,
        207,
        208,
        209,
        210,
        211,
        212,
        213,
        214,
        215,
        216,
        217,
        218,
        219,
        220,
        221,
        222,
        223,
        224,
        225,
        226,
        227,
        228,
        229,
        230,
        231,
        232,
        233,
        234,
        235,
        236,
        237,
        238,
        239,
        240,
        241,
        242,
        243,
        244,
        245,
        246,
        247,
        248,
        249,
        250,
        251,
        252,
        253,
        254,
        255,
        256,
        257,
        258,
        259,
        260,
        261,
        262,
        263,
        264,
        265,
        266,
        267,
        268,
        269,
        270,
        271,
        272,
        273,
        274,
        275,
        276,
        277,
        278,
        279,
        280,
        281,
        282,
        283,
        284,
        285,
        286,
        287,
        288
      ],
      "AcquisitionTime": [
        "174758.740000",
        "174759.740000",
        "174800.740000",
        "174801.740000",
        "174802.740000",
        "174803.740000",
        "174804.740000",
        "174805.740000",
        "174806.740000",
        "174807.740000",
        "174808.740000",
        "174809.740000",
        "174810.740000",
        "174811.740000",
        "174812.740000",
        "174813.740000",
        "174814.740000",
        "174815.740000",
        "174816.740000",
        "174817.740000",
        "174818.740000",
        "174819.740000",
        "174820.740000",
        "174821.740000",
        "174822.740000",
        "174823.740000",
        "174824.740000",
        "174825.740000",
        "174826.740000",
        "174827.740000",
        "174828.740000",
        "174829.740000",
        "174830.740000",
        "174831.740000",
        "174832.740000",
        "174833.740000",
        "174834.740000",
        "174835.740000",
        "174836.740000",
        "174837.740000",
        "174838.740000",
        "174839.740000",
        "174840.740000",
        "174841.740000",
        "174842.740000",
        "174843.740000",
        "174844.740000",
        "174845.740000",
        "174846.740000",
        "174847.740000",
        "174848.740000",
        "174849.740000",
        "174850.740000",
        "174851.740000",
        "174852.740000",
        "174853.740000",
        "174854.740000",
        "174855.740000",
        "174856.740000",
        "174857.740000",
        "174858.740000",
        "174859.740000",
        "174900.740000",
        "174901.740000",
        "174902.740000",
        "174903.740000",
        "174904.740000",
        "174905.740000",
        "174906.740000",
        "174907.740000",
        "174908.740000",
        "174909.740000",
        "174910.740000",
        "174911.740000",
        "174912.740000",
        "174913.740000",
        "174914.740000",
        "174915.740000",
        "174916.740000",
        "174917.740000",
        "174918.740000",
        "174919.740000",
        "174920.740000",
        "174921.740000",
        "174922.740000",
        "174923.740000",
        "174924.740000",
        "174925.740000",
        "174926.740000",
        "174927.740000",
        "174928.740000",
        "174929.740000",
        "174930.740000",
        "174931.740000",
        "174932.740000",
        "174933.740000",
        "174934.740000",
        "174935.740000",
        "174936.740000",
        "174937.740000",
        "174938.740000",
        "174939.740000",
        "174940.740000",
        "174941.740000",
        "174942.740000",
        "174943.740000",
        "174944.740000",
        "174945.740000",
        "174946.740000",
        "174947.740000",
        "174948.740000",
        "174949.740000",
        "174950.740000",
        "174951.740000",
        "174952.740000",
        "174953.740000",
        "174954.740000",
        "174955.740000",
        "174956.740000",
        "174957.740000",
        "174958.740000",
        "174959.740000",
        "175000.740000",
        "175001.740000",
        "175002.740000",
        "175003.740000",
        "175004.740000",
        "175005.740000",
        "175006.740000",
        "175007.740000",
        "175008.740000",
        "175009.740000",
        "175010.740000",
        "175011.740000",
        "175012.740000",
        "175013.740000",
        "175014.740000",
        "175015.740000",
        "175016.740000",
        "175017.740000",
        "175018.740000",
        "175019.740000",
        "175020.740000",
        "175021.740000",
        "175022.740000",
        "175023.740000",
        "175024.740000",
        "175025.740000",
        "175026.740000",
        "175027.740000",
        "175028.740000",
        "175029.740000",
        "175030.740000",
        "175031.740000",
        "175032.740000",
        "175033.740000",
        "175034.740000",
        "175035.740000",
        "175036.740000",
        "175037.740000",
        "175038.740000",
        "175039.740000",
        "175040.740000",
        "175041.740000",
        "175042.740000",
        "175043.740000",
        "175044.740000",
        "175045.740000",
        "175046.740000",
        "175047.740000",
        "175048.740000",
        "175049.740000",
        "175050.740000",
        "175051.740000",
        "175052.740000",
        "175053.740000",
        "175054.740000",
        "175055.740000",
        "175056.740000",
        "175057.740000",
        "175058.740000",
        "175059.740000",
        "175100.740000",
        "175101.740000",
        "175102.740000",
        "175103.740000",
        "175104.740000",
        "175105.740000",
        "175106.740000",
        "175107.740000",
        "175108.740000",
        "175109.740000",
        "175110.740000",
        "175111.740000",
        "175112.740000",
        "175113.740000",
        "175114.740000",
        "175115.740000",
        "175116.740000",
        "175117.740000",
        "175118.740000",
        "175119.740000",
        "175120.740000",
        "175121.740000",
        "175122.740000",
        "175123.740000",
        "175124.740000",
        "175125.740000",
        "175126.740000",
        "175127.740000",
        "175128.740000",
        "175129.740000",
        "175130.740000",
        "175131.740000",
        "175132.740000",
        "175133.740000",
        "175134.740000",
        "175135.740000",
        "175136.740000",
        "175137.740000",
        "175138.740000",
        "175139.740000",
        "175140.740000",
        "175141.740000",
        "175142.740000",
        "175143.740000",
        "175144.740000",
        "175145.740000",
        "175146.740000",
        "175147.740000",
        "175148.740000",
        "175149.740000",
        "175150.740000",
        "175151.740000",
        "175152.740000",
        "175153.740000",
        "175154.740000",
        "175155.740000",
        "175156.740000",
        "175157.740000",
        "175158.740000",
        "175159.740000",
        "175200.740000",
        "175201.740000",
        "175202.740000",
        "175203.740000",
        "175204.740000",
        "175205.740000",
        "175206.740000",
        "175207.740000",
        "175208.740000",
        "175209.740000",
        "175210.740000",
        "175211.740000",
        "175212.740000",
        "175213.740000",
        "175214.740000",
        "175215.740000",
        "175216.740000",
        "175217.740000",
        "175218.740000",
        "175219.740000",
        "175220.740000",
        "175221.740000",
        "175222.740000",
        "175223.740000",
        "175224.740000",
        "175225.740000",
        "175226.740000",
        "175227.740000",
        "175228.740000",
        "175229.740000",
        "175230.740000",
        "175231.740000",
        "175232.740000",
        "175233.740000",
        "175234.740000",
        "175235.740000",
        "175236.740000",
        "175237.740000",
        "175238.740000",
        "175239.740000",
        "175240.740000",
        "175241.740000",
        "175242.740000",
        "175243.740000",
        "175244.740000",
        "175245.740000"
      ],
      "ContentTime": [
        "174800.291000",
        "174801.216000",
        "174802.165000",
        "174803.150000",
        "174804.158000",
        "174805.207000",
        "174806.201000",
        "174807.206000",
        "174808.158000",
        "174809.134000",
        "174810.184000",
        "174811.143000",
        "174812.157000",
        "174813.165000",
        "174814.154000",
        "174815.157000",
        "174816.165000",
        "174817.182000",
        "174818.156000",
        "174819.142000",
        "174820.152000",
        "174821.185000",
        "174822.147000",
        "174823.156000",
        "174824.192000",
        "174825.169000",
        "174826.186000",
        "174827.149000",
        "174828.145000",
        "174829.157000",
        "174830.174000",
        "174831.151000",
        "174832.160000",
        "174833.169000",
        "174834.155000",
        "174835.150000",
        "174836.161000",
        "174837.157000",
        "174838.176000",
        "174839.160000",
        "174840.144000",
        "174841.160000",
        "174842.163000",
        "174843.146000",
        "174844.144000",
        "174845.172000",
        "174846.161000",
        "174847.184000",
        "174848.144000",
        "174849.146000",
        "174850.152000",
        "174851.167000",
        "174852.171000",
        "174853.235000",
        "174854.167000",
        "174855.140000",
        "174856.163000",
        "174857.160000",
        "174858.127000",
        "174859.178000",
        "174900.190000",
        "174901.163000",
        "174902.151000",
        "174903.181000",
        "174904.170000",
        "174905.160000",
        "174906.200000",
        "174907.150000",
        "174908.177000",
        "174909.140000",
        "174910.158000",
        "174911.166000",
        "174912.165000",
        "174913.180000",
        "174914.136000",
        "174915.162000",
        "174916.150000",
        "174917.161000",
        "174918.157000",
        "174919.164000",
        "174920.160000",
        "174921.164000",
        "174922.161000",
        "174923.168000",
        "174924.152000",
        "174925.190000",
        "174926.164000",
        "174927.155000",
        "174928.158000",
        "174929.171000",
        "174930.173000",
        "174931.153000",
        "174932.151000",
        "174933.178000",
        "174934.158000",
        "174935.174000",
        "174936.115000",
        "174937.159000",
        "174938.144000",
        "174939.167000",
        "174940.191000",
        "174941.142000",
        "174942.163000",
        "174943.160000",
        "174944.156000",
        "174945.169000",
        "174946.155000",
        "174947.190000",
        "174948.250000",
        "174949.181000",
        "174950.223000",
        "174951.181000",
        "174952.243000",
        "174953.154000",
        "174954.152000",
        "174955.154000",
        "174956.164000",
        "174957.158000",
        "174958.170000",
        "174959.176000",
        "175000.167000",
        "175001.207000",
        "175002.182000",
        "175003.144000",
        "175004.170000",
        "175005.189000",
        "175006.165000",
        "175007.171000",
        "175008.192000",
        "175009.178000",
        "175010.184000",
        "175011.168000",
        "175012.159000",
        "175013.172000",
        "175014.181000",
        "175015.169000",
        "175016.158000",
        "175017.153000",
        "175018.163000",
        "175019.163000",
        "175020.165000",
        "175021.172000",
        "175022.154000",
        "175023.160000",
        "175024.193000",
        "175025.158000",
        "175026.173000",
        "175027.180000",
        "175028.161000",
        "175029.166000",
        "175030.160000",
        "175031.190000",
        "175032.166000",
        "175033.217000",
        "175034.143000",
        "175035.156000",
        "175036.189000",
        "175037.190000",
        "175038.190000",
        "175039.178000",
        "175040.155000",
        "175041.183000",
        "175042.154000",
        "175043.176000",
        "175044.122000",
        "175045.193000",
        "175046.237000",
        "175047.158000",
        "175048.160000",
        "175049.154000",
        "175050.177000",
        "175051.123000",
        "175052.201000",
        "175053.177000",
        "175054.150000",
        "175055.187000",
        "175056.156000",
        "175057.169000",
        "175058.162000",
        "175059.156000",
        "175100.177000",
        "175101.135000",
        "175102.178000",
        "175103.175000",
        "175104.168000",
        "175105.165000",
        "175106.165000",
        "175107.189000",
        "175108.153000",
        "175109.156000",
        "175110.160000",
        "175111.141000",
        "175112.164000",
        "175113.160000",
        "175114.174000",
        "175115.147000",
        "175116.159000",
        "175117.173000",
        "175118.145000",
        "175119.168000",
        "175120.164000",
        "175121.178000",
        "175122.162000",
        "175123.165000",
        "175124.166000",
        "175125.250000",
        "175126.153000",
        "175127.153000",
        "175128.161000",
        "175129.161000",
        "175130.153000",
        "175131.177000",
        "175132.166000",
        "175133.182000",
        "175134.165000",
        "175135.159000",
        "175136.232000",
        "175137.190000",
        "175138.155000",
        "175139.167000",
        "175140.184000",
        "175141.169000",
        "175142.211000",
        "175143.221000",
        "175144.186000",
        "175145.136000",
        "175146.169000",
        "175147.180000",
        "175148.146000",
        "175149.172000",
        "175150.164000",
        "175151.176000",
        "175152.183000",
        "175153.156000",
        "175154.207000",
        "175155.157000",
        "175156.134000",
        "175157.175000",
        "175158.180000",
        "175159.185000",
        "175200.167000",
        "175201.140000",
        "175202.195000",
        "175203.170000",
        "175204.169000",
        "175205.165000",
        "175206.132000",
        "175207.123000",
        "175208.169000",
        "175209.215000",
        "175210.208000",
        "175211.232000",
        "175212.172000",
        "175213.153000",
        "175214.135000",
        "175215.189000",
        "175216.158000",
        "175217.155000",
        "175218.157000",
        "175219.176000",
        "175220.158000",
        "175221.155000",
        "175222.160000",
        "175223.235000",
        "175224.168000",
        "175225.199000",
        "175226.186000",
        "175227.165000",
        "175228.191000",
        "175229.187000",
        "175230.151000",
        "175231.165000",
        "175232.172000",
        "175233.148000",
        "175234.138000",
        "175235.156000",
        "175236.159000",
        "175237.167000",
        "175238.197000",
        "175239.177000",
        "175240.207000",
        "175241.202000",
        "175242.206000",
        "175243.189000",
        "175244.148000",
        "175245.158000",
        "175246.148000",
        "175247.200000"
      ],
      "InstanceCreationTime": [
        "174800.291000",
        "174801.216000",
        "174802.165000",
        "174803.150000",
        "174804.158000",
        "174805.207000",
        "174806.201000",
        "174807.206000",
        "174808.158000",
        "174809.134000",
        "174810.184000",
        "174811.143000",
        "174812.157000",
        "174813.165000",
        "174814.154000",
        "174815.157000",
        "174816.165000",
        "174817.182000",
        "174818.156000",
        "174819.142000",
        "174820.152000",
        "174821.185000",
        "174822.147000",
        "174823.156000",
        "174824.192000",
        "174825.169000",
        "174826.186000",
        "174827.149000",
        "174828.145000",
        "174829.157000",
        "174830.174000",
        "174831.151000",
        "174832.160000",
        "174833.169000",
        "174834.155000",
        "174835.150000",
        "174836.161000",
        "174837.157000",
        "174838.176000",
        "174839.160000",
        "174840.144000",
        "174841.160000",
        "174842.163000",
        "174843.146000",
        "174844.144000",
        "174845.172000",
        "174846.161000",
        "174847.184000",
        "174848.144000",
        "174849.146000",
        "174850.152000",
        "174851.167000",
        "174852.171000",
        "174853.235000",
        "174854.167000",
        "174855.140000",
        "174856.163000",
        "174857.160000",
        "174858.127000",
        "174859.178000",
        "174900.190000",
        "174901.163000",
        "174902.151000",
        "174903.181000",
        "174904.170000",
        "174905.160000",
        "174906.200000",
        "174907.150000",
        "174908.177000",
        "174909.140000",
        "174910.158000",
        "174911.166000",
        "174912.165000",
        "174913.180000",
        "174914.136000",
        "174915.162000",
        "174916.150000",
        "174917.161000",
        "174918.157000",
        "174919.164000",
        "174920.160000",
        "174921.164000",
        "174922.161000",
        "174923.168000",
        "174924.152000",
        "174925.190000",
        "174926.164000",
        "174927.155000",
        "174928.158000",
        "174929.171000",
        "174930.173000",
        "174931.153000",
        "174932.151000",
        "174933.178000",
        "174934.158000",
        "174935.174000",
        "174936.115000",
        "174937.159000",
        "174938.144000",
        "174939.167000",
        "174940.191000",
        "174941.142000",
        "174942.163000",
        "174943.160000",
        "174944.156000",
        "174945.169000",
        "174946.155000",
        "174947.190000",
        "174948.250000",
        "174949.181000",
        "174950.223000",
        "174951.181000",
        "174952.243000",
        "174953.154000",
        "174954.152000",
        "174955.154000",
        "174956.164000",
        "174957.158000",
        "174958.170000",
        "174959.176000",
        "175000.167000",
        "175001.207000",
        "175002.182000",
        "175003.144000",
        "175004.170000",
        "175005.189000",
        "175006.165000",
        "175007.171000",
        "175008.192000",
        "175009.178000",
        "175010.184000",
        "175011.168000",
        "175012.159000",
        "175013.172000",
        "175014.181000",
        "175015.169000",
        "175016.158000",
        "175017.153000",
        "175018.163000",
        "175019.163000",
        "175020.165000",
        "175021.172000",
        "175022.154000",
        "175023.160000",
        "175024.193000",
        "175025.158000",
        "175026.173000",
        "175027.180000",
        "175028.161000",
        "175029.166000",
        "175030.160000",
        "175031.190000",
        "175032.166000",
        "175033.217000",
        "175034.143000",
        "175035.156000",
        "175036.189000",
        "175037.190000",
        "175038.190000",
        "175039.178000",
        "175040.155000",
        "175041.183000",
        "175042.154000",
        "175043.176000",
        "175044.122000",
        "175045.193000",
        "175046.237000",
        "175047.158000",
        "175048.160000",
        "175049.154000",
        "175050.177000",
        "175051.123000",
        "175052.201000",
        "175053.177000",
        "175054.150000",
        "175055.187000",
        "175056.156000",
        "175057.169000",
        "175058.162000",
        "175059.156000",
        "175100.177000",
        "175101.135000",
        "175102.178000",
        "175103.175000",
        "175104.168000",
        "175105.165000",
        "175106.165000",
        "175107.189000",
        "175108.153000",
        "175109.156000",
        "175110.160000",
        "175111.141000",
        "175112.164000",
        "175113.160000",
        "175114.174000",
        "175115.147000",
        "175116.159000",
        "175117.173000",
        "175118.145000",
        "175119.168000",
        "175120.164000",
        "175121.178000",
        "175122.162000",
        "175123.165000",
        "175124.166000",
        "175125.250000",
        "175126.153000",
        "175127.153000",
        "175128.161000",
        "175129.161000",
        "175130.153000",
        "175131.177000",
        "175132.166000",
        "175133.182000",
        "175134.165000",
        "175135.159000",
        "175136.232000",
        "175137.190000",
        "175138.155000",
        "175139.167000",
        "175140.184000",
        "175141.169000",
        "175142.211000",
        "175143.221000",
        "175144.186000",
        "175145.136000",
        "175146.169000",
        "175147.180000",
        "175148.146000",
        "175149.172000",
        "175150.164000",
        "175151.176000",
        "175152.183000",
        "175153.156000",
        "175154.207000",
        "175155.157000",
        "175156.134000",
        "175157.175000",
        "175158.180000",
        "175159.185000",
        "175200.167000",
        "175201.140000",
        "175202.195000",
        "175203.170000",
        "175204.169000",
        "175205.165000",
        "175206.132000",
        "175207.123000",
        "175208.169000",
        "175209.215000",
        "175210.208000",
        "175211.232000",
        "175212.172000",
        "175213.153000",
        "175214.135000",
        "175215.189000",
        "175216.158000",
        "175217.155000",
        "175218.157000",
        "175219.176000",
        "175220.158000",
        "175221.155000",
        "175222.160000",
        "175223.235000",
        "175224.168000",
        "175225.199000",
        "175226.186000",
        "175227.165000",
        "175228.191000",
        "175229.187000",
        "175230.151000",
        "175231.165000",
        "175232.172000",
        "175233.148000",
        "175234.138000",
        "175235.156000",
        "175236.159000",
        "175237.167000",
        "175238.197000",
        "175239.177000",
        "175240.207000",
        "175241.202000",
        "175242.206000",
        "175243.189000",
        "175244.148000",
        "175245.158000",
        "175246.148000",
        "175247.200000"
      ],
      "InstanceNumber": [
        1,
        2,
        3,
        4,
        5,
        6,
        7,
        8,
        9,
        10,
        11,
        12,
        13,
        14,
        15,
        16,
        17,
        18,
        19,
        20,
        21,
        22,
        23,
        24,
        25,
        26,
        27,
        28,
        29,
        30,
        31,
        32,
        33,
        34,
        35,
        36,
        37,
        38,
        39,
        40,
        41,
        42,
        43,
        44,
        45,
        46,
        47,
        48,
        49,
        50,
        51,
        52,
        53,
        54,
        55,
        56,
        57,
        58,
        59,
        60,
        61,
        62,
        63,
        64,
        65,
        66,
        67,
        68,
        69,
        70,
        71,
        72,
        73,
        74,
        75,
        76,
        77,
        78,
        79,
        80,
        81,
        82,
        83,
        84,
        85,
        86,
        87,
        88,
        89,
        90,
        91,
        92,
        93,
        94,
        95,
        96,
        97,
        98,
        99,
        100,
        101,
        102,
        103,
        104,
        105,
        106,
        107,
        108,
        109,
        110,
        111,
        112,
        113,
        114,
        115,
        116,
        117,
        118,
        119,
        120,
        121,
        122,
        123,
        124,
        125,
        126,
        127,
        128,
        129,
        130,
        131,
        132,
        133,
        134,
        135,
        136,
        137,
        138,
        139,
        140,
        141,
        142,
        143,
        144,
        145,
        146,
        147,
        148,
        149,
        150,
        151,
        152,
        153,
        154,
        155,
        156,
        157,
        158,
        159,
        160,
        161,
        162,
        163,
        164,
        165,
        166,
        167,
        168,
        169,
        170,
        171,
        172,
        173,
        174,
        175,
        176,
        177,
        178,
        179,
        180,
        181,
        182,
        183,
        184,
        185,
        186,
        187,
        188,
        189,
        190,
        191,
        192,
        193,
        194,
