{
  "AcquisitionMatrixPE": 96,
  "AcquisitionNumber": 1,
  "BandwidthPerPixelPhaseEncode": 18.939,
  "BaseResolution": 96,
  "BodyPartExamined": "BRAIN",
  "ConsistencyInfo": "N4_VE11C_LATEST_20160120",
  "ConversionSoftware": "dcm2niix",
  "ConversionSoftwareVersion": "v1.0.20170923 (OpenJPEG build) GCC6.3.0",
  "DerivedVendorReportedEchoSpacing": 0.000550011,
  "DeviceSerialNumber": "66112",
  "DwellTime": 2.2e-06,
  "EchoTime": 0.033,
  "EchoTrainLength": 96,
  "EffectiveEchoSpacing": 0.000550011,
  "FlipAngle": 59,
  "ImageType": [
    "ORIGINAL",
    "PRIMARY",
    "FMRI",
    "NONE",
    "ND",
    "NORM",
    "MOSAIC"
  ],
  "InstitutionAddress": "Maynard_3_Hanover_NH_US_03755",
  "InstitutionName": "Dartmouth_College_-_PBS",
  "MagneticFieldStrength": 3,
  "Manufacturer": "Siemens",
  "ManufacturersModelName": "Prisma",
  "Modality": "MR",
  "MultibandAccelerationFactor": 4,
  "PartialFourier": 1,
  "PercentPhaseFOV": 100,
  "PhaseEncodingDirection": "j-",
  "PhaseEncodingSteps": 96,
  "PhaseResolution": 1,
  "ProcedureStepDescription": "Gobbini_Matteo_1038_hyperface",
  "ProtocolName": "func_run-05_task-localizer",
  "PulseSequenceDetails": "%SiemensSeq%_ep2d_bold",
  "ReceiveCoilActiveElements": "HEA;HEP",
  "ReceiveCoilName": "Head_32",
  "ReconMatrixPE": 96,
  "RepetitionTime": 1,
  "ScanOptions": "FS",
  "ScanningSequence": "EP",
  "SequenceName": "_epfid2d1_96",
  "SequenceVariant": "SK",
  "SeriesDescription": "func_run-05_task-localizer",
  "SliceTiming": [
    0.735,
    0,
    0.49,
    0.0825,
    0.5725,
    0.1625,
    0.6525,
    0.3275,
    0.8175,
    0.4075,
    0.8975,
    0.245,
    0.735,
    0,
    0.49,
    0.0825,
    0.5725,
    0.1625,
    0.6525,
    0.3275,
    0.8175,
    0.4075,
    0.8975,
    0.245,
    0.735,
    0,
    0.49,
    0.0825,
    0.5725,
    0.1625,
    0.6525,
    0.3275,
    0.8175,
    0.4075,
    0.8975,
    0.245,
    0.735,
    0,
    0.49,
    0.0825,
    0.5725,
    0.1625,
    0.6525,
    0.3275,
    0.8175,
    0.4075,
    0.8975,
    0.245
  ],
  "SoftwareVersions": "syngo_MR_E11",
  "StationName": "AWP66112",
  "TotalReadoutTime": 0.0522511,
  "time": {
    "samples": {
      "AcquisitionNumber": [
        1,
        2,
        3,
        4,
        5,
        6,
        7,
        8,
        9,
        10,
        11,
        12,
        13,
        14,
        15,
        16,
        17,
        18,
        19,
        20,
        21,
        22,
        23,
        24,
        25,
        26,
        27,
        28,
        29,
        30,
        31,
        32,
        33,
        34,
        35,
        36,
        37,
        38,
        39,
        40,
        41,
        42,
        43,
        44,
        45,
        46,
        47,
        48,
        49,
        50,
        51,
        52,
        53,
        54,
        55,
        56,
        57,
        58,
        59,
        60,
        61,
        62,
        63,
        64,
        65,
        66,
        67,
        68,
        69,
        70,
        71,
        72,
        73,
        74,
        75,
        76,
        77,
        78,
        79,
        80,
        81,
        82,
        83,
        84,
        85,
        86,
        87,
        88,
        89,
        90,
        91,
        92,
        93,
        94,
        95,
        96,
        97,
        98,
        99,
        100,
        101,
        102,
        103,
        104,
        105,
        106,
        107,
        108,
        109,
        110,
        111,
        112,
        113,
        114,
        115,
        116,
        117,
        118,
        119,
        120,
        121,
        122,
        123,
        124,
        125,
        126,
        127,
        128,
        129,
        130,
        131,
        132,
        133,
        134,
        135,
        136,
        137,
        138,
        139,
        140,
        141,
        142,
        143,
        144,
        145,
        146,
        147,
        148,
        149,
        150,
        151,
        152,
        153,
        154,
        155,
        156,
        157,
        158,
        159,
        160,
        161,
        162,
        163,
        164,
        165,
        166,
        167,
        168,
        169,
        170,
        171,
        172,
        173,
        174,
        175,
        176,
        177,
        178,
        179,
        180,
        181,
        182,
        183,
        184,
        185,
        186,
        187,
        188,
        189,
        190,
        191,
        192,
        193,
        194,
        195,
        196,
        197,
        198,
        199,
        200,
        201,
        202,
        203,
        204,
        205,
        206,
        207,
        208,
        209,
        210,
        211,
        212,
        213,
        214,
        215,
        216,
        217,
        218,
        219,
        220,
        221,
        222,
        223,
        224,
        225,
        226,
        227,
        228,
        229,
        230,
        231,
        232,
        233,
        234,
        235,
        236
      ],
      "AcquisitionTime": [
        "174317.655000",
        "174318.655000",
        "174319.655000",
        "174320.655000",
        "174321.655000",
        "174322.655000",
        "174323.655000",
        "174324.655000",
        "174325.655000",
        "174326.655000",
        "174327.655000",
        "174328.655000",
        "174329.655000",
        "174330.655000",
        "174331.655000",
        "174332.655000",
        "174333.655000",
        "174334.655000",
        "174335.655000",
        "174336.655000",
        "174337.655000",
        "174338.655000",
        "174339.655000",
        "174340.655000",
        "174341.655000",
        "174342.655000",
        "174343.655000",
        "174344.655000",
        "174345.655000",
        "174346.655000",
        "174347.655000",
        "174348.655000",
        "174349.655000",
        "174350.655000",
        "174351.655000",
        "174352.655000",
        "174353.655000",
        "174354.655000",
        "174355.655000",
        "174356.655000",
        "174357.655000",
        "174358.655000",
        "174359.655000",
        "174400.655000",
        "174401.655000",
        "174402.655000",
        "174403.655000",
        "174404.655000",
        "174405.655000",
        "174406.655000",
        "174407.655000",
        "174408.655000",
        "174409.655000",
        "174410.655000",
        "174411.655000",
        "174412.655000",
        "174413.655000",
        "174414.655000",
        "174415.655000",
        "174416.655000",
        "174417.655000",
        "174418.655000",
        "174419.655000",
        "174420.655000",
        "174421.655000",
        "174422.655000",
        "174423.655000",
        "174424.655000",
        "174425.655000",
        "174426.655000",
        "174427.655000",
        "174428.655000",
        "174429.655000",
        "174430.655000",
        "174431.655000",
        "174432.655000",
        "174433.655000",
        "174434.655000",
        "174435.655000",
        "174436.655000",
        "174437.655000",
        "174438.655000",
        "174439.655000",
        "174440.655000",
        "174441.655000",
        "174442.655000",
        "174443.655000",
        "174444.655000",
        "174445.655000",
        "174446.655000",
        "174447.655000",
        "174448.655000",
        "174449.655000",
        "174450.655000",
        "174451.655000",
        "174452.655000",
        "174453.655000",
        "174454.655000",
        "174455.655000",
        "174456.655000",
        "174457.655000",
        "174458.655000",
        "174459.655000",
        "174500.655000",
        "174501.655000",
        "174502.655000",
        "174503.655000",
        "174504.655000",
        "174505.655000",
        "174506.655000",
        "174507.655000",
        "174508.655000",
        "174509.655000",
        "174510.655000",
        "174511.655000",
        "174512.655000",
        "174513.655000",
        "174514.655000",
        "174515.655000",
        "174516.655000",
        "174517.655000",
        "174518.655000",
        "174519.655000",
        "174520.655000",
        "174521.655000",
        "174522.655000",
        "174523.655000",
        "174524.655000",
        "174525.655000",
        "174526.655000",
        "174527.655000",
        "174528.655000",
        "174529.655000",
        "174530.655000",
        "174531.655000",
        "174532.655000",
        "174533.655000",
        "174534.655000",
        "174535.655000",
        "174536.655000",
        "174537.655000",
        "174538.655000",
        "174539.655000",
        "174540.655000",
        "174541.655000",
        "174542.655000",
        "174543.655000",
        "174544.655000",
        "174545.655000",
        "174546.655000",
        "174547.655000",
        "174548.655000",
        "174549.655000",
        "174550.655000",
        "174551.655000",
        "174552.655000",
        "174553.655000",
        "174554.655000",
        "174555.655000",
        "174556.655000",
        "174557.655000",
        "174558.655000",
        "174559.655000",
        "174600.655000",
        "174601.655000",
        "174602.655000",
        "174603.655000",
        "174604.655000",
        "174605.655000",
        "174606.655000",
        "174607.655000",
        "174608.655000",
        "174609.655000",
        "174610.655000",
        "174611.655000",
        "174612.655000",
        "174613.655000",
        "174614.655000",
        "174615.655000",
        "174616.655000",
        "174617.655000",
        "174618.655000",
        "174619.655000",
        "174620.655000",
        "174621.655000",
        "174622.655000",
        "174623.655000",
        "174624.655000",
        "174625.655000",
        "174626.655000",
        "174627.655000",
        "174628.655000",
        "174629.655000",
        "174630.655000",
        "174631.655000",
        "174632.655000",
        "174633.655000",
        "174634.655000",
        "174635.655000",
        "174636.655000",
        "174637.655000",
        "174638.655000",
        "174639.655000",
        "174640.655000",
        "174641.655000",
        "174642.655000",
        "174643.655000",
        "174644.655000",
        "174645.655000",
        "174646.655000",
        "174647.655000",
        "174648.655000",
        "174649.655000",
        "174650.655000",
        "174651.655000",
        "174652.655000",
        "174653.655000",
        "174654.655000",
        "174655.655000",
        "174656.655000",
        "174657.655000",
        "174658.655000",
        "174659.655000",
        "174700.655000",
        "174701.655000",
        "174702.655000",
        "174703.655000",
        "174704.655000",
        "174705.655000",
        "174706.655000",
        "174707.655000",
        "174708.655000",
        "174709.655000",
        "174710.655000",
        "174711.655000",
        "174712.655000"
      ],
      "ContentTime": [
        "174319.022000",
        "174319.861000",
        "174320.825000",
        "174321.785000",
        "174322.825000",
        "174323.819000",
        "174324.835000",
        "174325.816000",
        "174326.811000",
        "174327.831000",
        "174328.790000",
        "174329.823000",
        "174330.840000",
        "174331.790000",
        "174332.815000",
        "174333.787000",
        "174334.815000",
        "174335.813000",
        "174336.784000",
        "174337.806000",
        "174338.826000",
        "174339.777000",
        "174340.805000",
        "174341.827000",
        "174342.807000",
        "174343.833000",
        "174344.891000",
        "174345.816000",
        "174346.795000",
        "174347.791000",
        "174348.822000",
        "174349.796000",
        "174350.814000",
        "174351.806000",
        "174352.784000",
        "174353.789000",
        "174354.796000",
        "174355.791000",
        "174356.784000",
        "174357.819000",
        "174358.819000",
        "174359.794000",
        "174400.791000",
        "174401.812000",
        "174402.806000",
        "174403.801000",
        "174404.764000",
        "174405.813000",
        "174406.820000",
        "174407.844000",
        "174408.819000",
        "174409.846000",
        "174410.767000",
        "174411.790000",
        "174412.802000",
        "174413.789000",
        "174414.778000",
        "174415.797000",
        "174416.793000",
        "174417.812000",
        "174418.809000",
        "174419.788000",
        "174420.801000",
        "174421.818000",
        "174422.798000",
        "174423.799000",
        "174424.807000",
        "174425.825000",
        "174426.818000",
        "174427.895000",
        "174428.819000",
        "174429.803000",
        "174430.812000",
        "174431.834000",
        "174432.826000",
        "174433.775000",
        "174434.801000",
        "174435.835000",
        "174436.799000",
        "174437.791000",
        "174438.801000",
        "174439.808000",
        "174440.827000",
        "174441.823000",
        "174442.810000",
        "174443.847000",
        "174444.840000",
        "174445.829000",
        "174446.781000",
        "174447.821000",
        "174448.798000",
        "174449.798000",
        "174450.813000",
        "174451.809000",
        "174452.821000",
        "174453.835000",
        "174454.849000",
        "174455.789000",
        "174456.829000",
        "174457.849000",
        "174458.824000",
        "174459.790000",
        "174500.805000",
        "174501.784000",
        "174502.814000",
        "174503.814000",
        "174504.807000",
        "174505.846000",
        "174506.820000",
        "174507.842000",
        "174508.833000",
        "174509.827000",
        "174510.800000",
        "174511.847000",
        "174512.841000",
        "174513.854000",
        "174514.886000",
        "174515.807000",
        "174516.829000",
        "174517.835000",
        "174518.801000",
        "174519.805000",
        "174520.778000",
        "174521.822000",
        "174522.803000",
        "174523.836000",
        "174524.811000",
        "174525.891000",
        "174526.788000",
        "174527.819000",
        "174528.803000",
        "174529.801000",
        "174530.806000",
        "174531.852000",
        "174532.773000",
        "174533.844000",
        "174534.797000",
        "174535.787000",
        "174536.828000",
        "174537.841000",
        "174538.832000",
        "174539.818000",
        "174540.799000",
        "174541.798000",
        "174542.818000",
        "174543.826000",
        "174544.818000",
        "174545.820000",
        "174546.827000",
        "174547.827000",
        "174548.813000",
        "174549.824000",
        "174550.817000",
        "174551.856000",
        "174552.797000",
        "174553.862000",
        "174554.781000",
        "174555.839000",
        "174556.819000",
        "174557.843000",
        "174558.811000",
        "174559.807000",
        "174600.796000",
        "174601.810000",
        "174602.834000",
        "174603.850000",
        "174604.794000",
        "174605.869000",
        "174606.789000",
        "174607.808000",
        "174608.779000",
        "174609.848000",
        "174610.813000",
        "174611.823000",
        "174612.810000",
        "174613.783000",
        "174614.821000",
        "174615.832000",
        "174616.821000",
        "174617.856000",
        "174618.816000",
        "174619.809000",
        "174620.829000",
        "174621.830000",
        "174622.847000",
        "174623.830000",
        "174624.811000",
        "174625.808000",
        "174626.801000",
        "174627.818000",
        "174628.832000",
        "174629.800000",
        "174630.821000",
        "174631.820000",
        "174632.822000",
        "174633.820000",
        "174634.777000",
        "174635.862000",
        "174636.767000",
        "174637.818000",
        "174638.793000",
        "174639.848000",
        "174640.817000",
        "174641.832000",
        "174642.848000",
        "174643.811000",
        "174644.804000",
        "174645.839000",
        "174646.815000",
        "174647.829000",
        "174648.796000",
        "174649.824000",
        "174650.801000",
        "174651.814000",
        "174652.810000",
        "174653.855000",
        "174654.831000",
        "174655.817000",
        "174656.817000",
        "174657.832000",
        "174658.808000",
        "174659.814000",
        "174700.803000",
        "174701.808000",
        "174702.813000",
        "174703.875000",
        "174704.796000",
        "174705.821000",
        "174706.818000",
        "174707.802000",
        "174708.819000",
        "174709.850000",
        "174710.800000",
        "174711.806000",
        "174712.828000",
        "174713.823000"
      ],
      "InstanceCreationTime": [
        "174319.022000",
        "174319.861000",
        "174320.825000",
        "174321.785000",
        "174322.825000",
        "174323.819000",
        "174324.835000",
        "174325.816000",
        "174326.811000",
        "174327.831000",
        "174328.790000",
        "174329.823000",
        "174330.840000",
        "174331.790000",
        "174332.815000",
        "174333.787000",
        "174334.815000",
        "174335.813000",
        "174336.784000",
        "174337.806000",
        "174338.826000",
        "174339.777000",
        "174340.805000",
        "174341.827000",
        "174342.807000",
        "174343.833000",
        "174344.891000",
        "174345.816000",
        "174346.795000",
        "174347.791000",
        "174348.822000",
        "174349.796000",
        "174350.814000",
        "174351.806000",
        "174352.784000",
        "174353.789000",
        "174354.796000",
        "174355.791000",
        "174356.784000",
        "174357.819000",
        "174358.819000",
        "174359.794000",
        "174400.791000",
        "174401.812000",
        "174402.806000",
        "174403.801000",
        "174404.764000",
        "174405.813000",
        "174406.820000",
        "174407.844000",
        "174408.819000",
        "174409.846000",
        "174410.767000",
        "174411.790000",
        "174412.802000",
        "174413.789000",
        "174414.778000",
        "174415.797000",
        "174416.793000",
        "174417.812000",
        "174418.809000",
        "174419.788000",
        "174420.801000",
        "174421.818000",
        "174422.798000",
        "174423.799000",
        "174424.807000",
        "174425.825000",
        "174426.818000",
        "174427.895000",
        "174428.819000",
        "174429.803000",
        "174430.812000",
        "174431.834000",
        "174432.826000",
        "174433.775000",
        "174434.801000",
        "174435.835000",
        "174436.799000",
        "174437.791000",
        "174438.801000",
        "174439.808000",
        "174440.827000",
        "174441.823000",
        "174442.810000",
        "174443.847000",
        "174444.840000",
        "174445.829000",
        "174446.781000",
        "174447.821000",
        "174448.798000",
        "174449.798000",
        "174450.813000",
        "174451.809000",
        "174452.821000",
        "174453.835000",
        "174454.849000",
        "174455.789000",
        "174456.829000",
        "174457.849000",
        "174458.824000",
        "174459.790000",
        "174500.805000",
        "174501.784000",
        "174502.814000",
        "174503.814000",
        "174504.807000",
        "174505.846000",
        "174506.820000",
        "174507.842000",
        "174508.833000",
        "174509.827000",
        "174510.800000",
        "174511.847000",
        "174512.841000",
        "174513.854000",
        "174514.886000",
        "174515.807000",
        "174516.829000",
        "174517.835000",
        "174518.801000",
        "174519.805000",
        "174520.778000",
        "174521.822000",
        "174522.803000",
        "174523.836000",
        "174524.811000",
        "174525.891000",
        "174526.788000",
        "174527.819000",
        "174528.803000",
        "174529.801000",
        "174530.806000",
        "174531.852000",
        "174532.773000",
        "174533.844000",
        "174534.797000",
        "174535.787000",
        "174536.828000",
        "174537.841000",
        "174538.832000",
        "174539.818000",
        "174540.799000",
        "174541.798000",
        "174542.818000",
        "174543.826000",
        "174544.818000",
        "174545.820000",
        "174546.827000",
        "174547.827000",
        "174548.813000",
        "174549.824000",
        "174550.817000",
        "174551.856000",
        "174552.797000",
        "174553.862000",
        "174554.781000",
        "174555.839000",
        "174556.819000",
        "174557.843000",
        "174558.811000",
        "174559.807000",
        "174600.796000",
        "174601.810000",
        "174602.834000",
        "174603.850000",
        "174604.794000",
        "174605.869000",
        "174606.789000",
        "174607.808000",
        "174608.779000",
        "174609.848000",
        "174610.813000",
        "174611.823000",
        "174612.810000",
        "174613.783000",
        "174614.821000",
        "174615.832000",
        "174616.821000",
        "174617.856000",
        "174618.816000",
        "174619.809000",
        "174620.829000",
        "174621.830000",
        "174622.847000",
        "174623.830000",
        "174624.811000",
        "174625.808000",
        "174626.801000",
        "174627.818000",
        "174628.832000",
        "174629.800000",
        "174630.821000",
        "174631.820000",
        "174632.822000",
        "174633.820000",
        "174634.777000",
        "174635.862000",
        "174636.767000",
        "174637.818000",
        "174638.793000",
        "174639.848000",
        "174640.817000",
        "174641.832000",
        "174642.848000",
        "174643.811000",
        "174644.804000",
        "174645.839000",
        "174646.815000",
        "174647.829000",
        "174648.796000",
        "174649.824000",
        "174650.801000",
        "174651.814000",
        "174652.810000",
        "174653.855000",
        "174654.831000",
        "174655.817000",
        "174656.817000",
        "174657.832000",
        "174658.808000",
        "174659.814000",
        "174700.803000",
        "174701.808000",
        "174702.813000",
        "174703.875000",
        "174704.796000",
        "174705.821000",
        "174706.818000",
        "174707.802000",
        "174708.819000",
        "174709.850000",
        "174710.800000",
        "174711.806000",
        "174712.828000",
        "174713.823000"
      ],
      "InstanceNumber": [
        1,
        2,
        3,
        4,
        5,
        6,
        7,
        8,
        9,
        10,
        11,
        12,
        13,
        14,
        15,
        16,
        17,
        18,
        19,
        20,
        21,
        22,
        23,
        24,
        25,
        26,
        27,
        28,
        29,
        30,
        31,
        32,
        33,
        34,
        35,
        36,
        37,
        38,
        39,
        40,
        41,
        42,
        43,
        44,
        45,
        46,
        47,
        48,
        49,
        50,
        51,
        52,
        53,
        54,
        55,
        56,
        57,
        58,
        59,
        60,
        61,
        62,
        63,
        64,
        65,
        66,
        67,
        68,
        69,
        70,
        71,
        72,
        73,
        74,
        75,
        76,
        77,
        78,
        79,
        80,
        81,
        82,
        83,
        84,
        85,
        86,
        87,
        88,
        89,
        90,
        91,
        92,
        93,
        94,
        95,
        96,
        97,
        98,
        99,
        100,
        101,
        102,
        103,
        104,
        105,
        106,
        107,
        108,
        109,
        110,
        111,
        112,
        113,
        114,
        115,
        116,
        117,
        118,
        119,
        120,
        121,
        122,
        123,
        124,
        125,
        126,
        127,
        128,
        129,
        130,
        131,
        132,
        133,
        134,
        135,
        136,
        137,
        138,
        139,
        140,
        141,
        142,
        143,
        144,
        145,
        146,
        147,
        148,
        149,
        150,
        151,
        152,
        153,
        154,
        155,
        156,
        157,
        158,
        159,
        160,
        161,
        162,
        163,
        164,
        165,
        166,
        167,
        168,
        169,
        170,
        171,
        172,
        173,
        174,
        175,
        176,
        177,
        178,
        179,
        180,
        181,
        182,
        183,
        184,
        185,
        186,
        187,
        188,
        189,
        190,
        191,
        192,
        193,
        194,
        195,
        196,
        197,
        198,
        199,
        200,
        201,
        202,
        203,
        204,
        205,
        206,
        207,
        208,
        209,
        210,
        211,
        212,
        213,
        214,
        215,
        216,
        217,
        218,
        219,
        220,
        221,
        222,
        223,
        224,
        225,
        226,
        227,
        228,
        229,
        230,
        231,
        232,
        233,
        234,
        235,
        236
      ],
      "LargestImagePixelValue": [
        1249,
        874,
        824,
        811,
        944,
        827,
        710,
        823,
        1202,
        1291,
        816,
        809,
        736,
        1044,
        907,
        806,
        716,
        850,
        1186,
        906,
        747,
        828,
        968,
        874,
        728,
        704,
        848,
        1250,
        872,
        709,
        765,
        929,
        1202,
        999,
        810,
        773,
        812,
        854,
        784,
        753,
        764,
        961,
        1198,
        893,
        766,
        776,
        1037,
        959,
        851,
        706,
        870,
        872,
        733,
        695,
        840,
        1090,
        988,
        784,
        734,
        843,
        914,
        932,
        800,
        790,
        858,
        952,
        748,
        755,
        734,
        763,
        903,
        1178,
        790,
        756,
        719,
        838,
        814,
        795,
        777,
        777,
        840,
        876,
        969,
        866,
        800,
        984,
        772,
        745,
        735,
        923,
        1220,
        905,
        728,
        881,
        1126,
        803,
        729,
        723,
        816,
        1046,
        815,
        705,
        955,
        1233,
        814,
        711,
        748,
        729,
        920,
        1082,
        793,
        819,
        1278,
        1320,
        869,
        692,
        888,
        889,
        814,
        719,
        944,
        883,
        780,
        843,
        800,
        787,
        740,
        951,
        817,
        765,
        737,
        944,
        875,
        707,
        759,
        1026,
        915,
        746,
        704,
        884,
        749,
        709,
        869,
        866,
        825,
        718,
        878,
        838,
        742,
        724,
        737,
        752,
        706,
        800,
        771,
        890,
        941,
        797,
        754,
        784,
        936,
        1119,
        787,
        695,
        813,
        809,
        824,
        741,
        840,
        1007,
        838,
        755,
        771,
        886,
        807,
        798,
        728,
        725,
        831,
        791,
        727,
        739,
        838,
        829,
        751,
        752,
        805,
        989,
        874,
        790,
        818,
        854,
        856,
        717,
        812,
        793,
        1007,
        1229,
        1058,
        831,
        753,
        731,
        782,
        766,
        768,
        885,
        1192,
        1245,
        847,
        704,
        808,
        884,
        798,
        742,
        852,
        857,
        853,
        883,
        970,
        879,
        759,
        906,
        767,
        801,
        792,
        1204,
        984,
        817,
        699,
        1051,
        873,
        735,
        790,
        905,
        825,
        717
      ],
      "WindowCenter": [
        368,
        363,
        359,
        365,
        366,
        364,
        363,
        364,
        366,
        366,
        363,
        363,
        362,
        365,
        363,
        362,
        361,
        363,
        365,
        363,
        362,
        364,
        366,
        364,
        363,
        362,
        363,
        367,
        364,
        363,
        364,
        365,
        367,
        365,
        363,
        362,
        363,
        363,
        363,
        363,
        363,
        365,
        367,
        365,
        363,
        363,
        365,
        365,
        364,
        363,
        365,
        365,
        364,
        363,
        364,
        367,
        365,
        363,
        363,
        364,
        365,
        365,
        363,
        363,
        364,
        365,
        362,
