{
  "AcquisitionMatrixPE": 96,
  "AcquisitionNumber": 1,
  "BandwidthPerPixelPhaseEncode": 18.939,
  "BaseResolution": 96,
  "BodyPartExamined": "BRAIN",
  "ConsistencyInfo": "N4_VE11C_LATEST_20160120",
  "ConversionSoftware": "dcm2niix",
  "ConversionSoftwareVersion": "v1.0.20170923 (OpenJPEG build) GCC6.3.0",
  "DerivedVendorReportedEchoSpacing": 0.000550011,
  "DeviceSerialNumber": "66112",
  "DwellTime": 2.2e-06,
  "EchoTime": 0.033,
  "EchoTrainLength": 96,
  "EffectiveEchoSpacing": 0.000550011,
  "FlipAngle": 59,
  "ImageType": [
    "ORIGINAL",
    "PRIMARY",
    "FMRI",
    "NONE",
    "ND",
    "NORM",
    "MOSAIC"
  ],
  "InstitutionAddress": "Maynard_3_Hanover_NH_US_03755",
  "InstitutionName": "Dartmouth_College_-_PBS",
  "MagneticFieldStrength": 3,
  "Manufacturer": "Siemens",
  "ManufacturersModelName": "Prisma",
  "Modality": "MR",
  "MultibandAccelerationFactor": 4,
  "PercentPhaseFOV": 100,
  "PhaseEncodingDirection": "j-",
  "PhaseEncodingSteps": 96,
  "PhaseResolution": 1,
  "ProcedureStepDescription": "Gobbini_Matteo_1038_hyperface",
  "ProtocolName": "func_run-01_task-localizer",
  "PulseSequenceDetails": "%SiemensSeq%_ep2d_bold",
  "ReceiveCoilActiveElements": "HEA;HEP",
  "ReceiveCoilName": "Head_32",
  "ReconMatrixPE": 96,
  "RepetitionTime": 1,
  "ScanOptions": "FS",
  "ScanningSequence": "EP",
  "SequenceName": "_epfid2d1_96",
  "SequenceVariant": "SK",
  "SeriesDescription": "func_run-01_task-localizer",
  "SliceTiming": [
    0.735,
    0,
    0.49,
    0.0825,
    0.5725,
    0.1625,
    0.6525,
    0.3275,
    0.8175,
    0.4075,
    0.8975,
    0.245,
    0.735,
    0,
    0.49,
    0.0825,
    0.5725,
    0.1625,
    0.6525,
    0.3275,
    0.8175,
    0.4075,
    0.8975,
    0.245,
    0.735,
    0,
    0.49,
    0.0825,
    0.5725,
    0.1625,
    0.6525,
    0.3275,
    0.8175,
    0.4075,
    0.8975,
    0.245,
    0.735,
    0,
    0.49,
    0.0825,
    0.5725,
    0.1625,
    0.6525,
    0.3275,
    0.8175,
    0.4075,
    0.8975,
    0.245
  ],
  "SoftwareVersions": "syngo_MR_E11",
  "StationName": "AWP66112",
  "TotalReadoutTime": 0.0522511,
  "time": {
    "samples": {
      "AcquisitionNumber": [
        1,
        2,
        3,
        4,
        5,
        6,
        7,
        8,
        9,
        10,
        11,
        12,
        13,
        14,
        15,
        16,
        17,
        18,
        19,
        20,
        21,
        22,
        23,
        24,
        25,
        26,
        27,
        28,
        29,
        30,
        31,
        32,
        33,
        34,
        35,
        36,
        37,
        38,
        39,
        40,
        41,
        42,
        43,
        44,
        45,
        46,
        47,
        48,
        49,
        50,
        51,
        52,
        53,
        54,
        55,
        56,
        57,
        58,
        59,
        60,
        61,
        62,
        63,
        64,
        65,
        66,
        67,
        68,
        69,
        70,
        71,
        72,
        73,
        74,
        75,
        76,
        77,
        78,
        79,
        80,
        81,
        82,
        83,
        84,
        85,
        86,
        87,
        88,
        89,
        90,
        91,
        92,
        93,
        94,
        95,
        96,
        97,
        98,
        99,
        100,
        101,
        102,
        103,
        104,
        105,
        106,
        107,
        108,
        109,
        110,
        111,
        112,
        113,
        114,
        115,
        116,
        117,
        118,
        119,
        120,
        121,
        122,
        123,
        124,
        125,
        126,
        127,
        128,
        129,
        130,
        131,
        132,
        133,
        134,
        135,
        136,
        137,
        138,
        139,
        140,
        141,
        142,
        143,
        144,
        145,
        146,
        147,
        148,
        149,
        150,
        151,
        152,
        153,
        154,
        155,
        156,
        157,
        158,
        159,
        160,
        161,
        162,
        163,
        164,
        165,
        166,
        167,
        168,
        169,
        170,
        171,
        172,
        173,
        174,
        175,
        176,
        177,
        178,
        179,
        180,
        181,
        182,
        183,
        184,
        185,
        186,
        187,
        188,
        189,
        190,
        191,
        192,
        193,
        194,
        195,
        196,
        197,
        198,
        199,
        200,
        201,
        202,
        203,
        204,
        205,
        206,
        207,
        208,
        209,
        210,
        211,
        212,
        213,
        214,
        215,
        216,
        217,
        218,
        219,
        220,
        221,
        222,
        223,
        224,
        225,
        226,
        227,
        228,
        229,
        230,
        231,
        232,
        233,
        234,
        235,
        236
      ],
      "AcquisitionTime": [
        "172117.867500",
        "172118.867500",
        "172119.867500",
        "172120.867500",
        "172121.867500",
        "172122.867500",
        "172123.867500",
        "172124.867500",
        "172125.867500",
        "172126.867500",
        "172127.867500",
        "172128.867500",
        "172129.867500",
        "172130.867500",
        "172131.867500",
        "172132.867500",
        "172133.867500",
        "172134.867500",
        "172135.867500",
        "172136.867500",
        "172137.867500",
        "172138.867500",
        "172139.867500",
        "172140.867500",
        "172141.867500",
        "172142.867500",
        "172143.867500",
        "172144.867500",
        "172145.867500",
        "172146.867500",
        "172147.867500",
        "172148.867500",
        "172149.867500",
        "172150.867500",
        "172151.867500",
        "172152.867500",
        "172153.867500",
        "172154.867500",
        "172155.867500",
        "172156.867500",
        "172157.867500",
        "172158.867500",
        "172159.867500",
        "172200.867500",
        "172201.867500",
        "172202.867500",
        "172203.867500",
        "172204.867500",
        "172205.867500",
        "172206.867500",
        "172207.867500",
        "172208.867500",
        "172209.867500",
        "172210.867500",
        "172211.867500",
        "172212.867500",
        "172213.867500",
        "172214.867500",
        "172215.867500",
        "172216.867500",
        "172217.867500",
        "172218.867500",
        "172219.867500",
        "172220.867500",
        "172221.867500",
        "172222.867500",
        "172223.867500",
        "172224.867500",
        "172225.867500",
        "172226.867500",
        "172227.867500",
        "172228.867500",
        "172229.867500",
        "172230.867500",
        "172231.867500",
        "172232.867500",
        "172233.867500",
        "172234.867500",
        "172235.867500",
        "172236.867500",
        "172237.867500",
        "172238.867500",
        "172239.867500",
        "172240.867500",
        "172241.867500",
        "172242.867500",
        "172243.867500",
        "172244.867500",
        "172245.867500",
        "172246.867500",
        "172247.867500",
        "172248.867500",
        "172249.867500",
        "172250.867500",
        "172251.867500",
        "172252.867500",
        "172253.867500",
        "172254.867500",
        "172255.867500",
        "172256.867500",
        "172257.867500",
        "172258.867500",
        "172259.867500",
        "172300.867500",
        "172301.867500",
        "172302.867500",
        "172303.867500",
        "172304.867500",
        "172305.867500",
        "172306.867500",
        "172307.867500",
        "172308.867500",
        "172309.867500",
        "172310.867500",
        "172311.867500",
        "172312.867500",
        "172313.867500",
        "172314.867500",
        "172315.867500",
        "172316.867500",
        "172317.867500",
        "172318.867500",
        "172319.867500",
        "172320.867500",
        "172321.867500",
        "172322.867500",
        "172323.867500",
        "172324.867500",
        "172325.867500",
        "172326.867500",
        "172327.867500",
        "172328.867500",
        "172329.867500",
        "172330.867500",
        "172331.867500",
        "172332.867500",
        "172333.867500",
        "172334.867500",
        "172335.867500",
        "172336.867500",
        "172337.867500",
        "172338.867500",
        "172339.867500",
        "172340.867500",
        "172341.867500",
        "172342.867500",
        "172343.867500",
        "172344.867500",
        "172345.867500",
        "172346.867500",
        "172347.867500",
        "172348.867500",
        "172349.867500",
        "172350.867500",
        "172351.867500",
        "172352.867500",
        "172353.867500",
        "172354.867500",
        "172355.867500",
        "172356.867500",
        "172357.867500",
        "172358.867500",
        "172359.867500",
        "172400.867500",
        "172401.867500",
        "172402.867500",
        "172403.867500",
        "172404.867500",
        "172405.867500",
        "172406.867500",
        "172407.867500",
        "172408.867500",
        "172409.867500",
        "172410.867500",
        "172411.867500",
        "172412.867500",
        "172413.867500",
        "172414.867500",
        "172415.867500",
        "172416.867500",
        "172417.867500",
        "172418.867500",
        "172419.867500",
        "172420.867500",
        "172421.867500",
        "172422.867500",
        "172423.867500",
        "172424.867500",
        "172425.867500",
        "172426.867500",
        "172427.867500",
        "172428.867500",
        "172429.867500",
        "172430.867500",
        "172431.867500",
        "172432.867500",
        "172433.867500",
        "172434.867500",
        "172435.867500",
        "172436.867500",
        "172437.867500",
        "172438.867500",
        "172439.867500",
        "172440.867500",
        "172441.867500",
        "172442.867500",
        "172443.867500",
        "172444.867500",
        "172445.867500",
        "172446.867500",
        "172447.867500",
        "172448.867500",
        "172449.867500",
        "172450.867500",
        "172451.867500",
        "172452.867500",
        "172453.867500",
        "172454.867500",
        "172455.867500",
        "172456.867500",
        "172457.867500",
        "172458.867500",
        "172459.867500",
        "172500.867500",
        "172501.867500",
        "172502.867500",
        "172503.867500",
        "172504.867500",
        "172505.867500",
        "172506.867500",
        "172507.867500",
        "172508.867500",
        "172509.867500",
        "172510.867500",
        "172511.867500",
        "172512.867500"
      ],
      "ContentTime": [
        "172119.513000",
        "172120.314000",
        "172121.290000",
        "172122.295000",
        "172123.328000",
        "172124.322000",
        "172125.334000",
        "172126.341000",
        "172127.404000",
        "172128.449000",
        "172129.350000",
        "172130.367000",
        "172131.346000",
        "172132.380000",
        "172133.322000",
        "172134.342000",
        "172135.349000",
        "172136.361000",
        "172137.305000",
        "172138.317000",
        "172139.317000",
        "172140.334000",
        "172141.298000",
        "172142.324000",
        "172143.325000",
        "172144.304000",
        "172145.315000",
        "172146.307000",
        "172147.329000",
        "172148.398000",
        "172149.379000",
        "172150.369000",
        "172151.338000",
        "172152.312000",
        "172153.323000",
        "172154.339000",
        "172155.323000",
        "172156.340000",
        "172157.326000",
        "172158.313000",
        "172159.313000",
        "172200.380000",
        "172201.350000",
        "172202.321000",
        "172203.324000",
        "172204.350000",
        "172205.358000",
        "172206.309000",
        "172207.306000",
        "172208.318000",
        "172209.334000",
        "172210.313000",
        "172211.318000",
        "172212.325000",
        "172213.336000",
        "172214.307000",
        "172215.339000",
        "172216.353000",
        "172217.338000",
        "172218.335000",
        "172219.322000",
        "172220.336000",
        "172221.341000",
        "172222.316000",
        "172223.328000",
        "172224.331000",
        "172225.328000",
        "172226.307000",
        "172227.315000",
        "172228.305000",
        "172229.330000",
        "172230.334000",
        "172231.328000",
        "172232.402000",
        "172233.358000",
        "172234.340000",
        "172235.326000",
        "172236.332000",
        "172237.321000",
        "172238.320000",
        "172239.317000",
        "172240.320000",
        "172241.298000",
        "172242.313000",
        "172243.386000",
        "172244.329000",
        "172245.328000",
        "172246.327000",
        "172247.291000",
        "172248.310000",
        "172249.332000",
        "172250.324000",
        "172251.289000",
        "172252.340000",
        "172253.305000",
        "172254.313000",
        "172255.333000",
        "172256.329000",
        "172257.311000",
        "172258.317000",
        "172259.339000",
        "172300.352000",
        "172301.315000",
        "172302.358000",
        "172303.344000",
        "172304.324000",
        "172305.348000",
        "172306.319000",
        "172307.342000",
        "172308.333000",
        "172309.327000",
        "172310.339000",
        "172311.329000",
        "172312.351000",
        "172313.313000",
        "172314.346000",
        "172315.351000",
        "172316.332000",
        "172317.340000",
        "172318.355000",
        "172319.322000",
        "172320.341000",
        "172321.361000",
        "172322.375000",
        "172323.346000",
        "172324.338000",
        "172325.326000",
        "172326.326000",
        "172327.338000",
        "172328.328000",
        "172329.338000",
        "172330.328000",
        "172331.321000",
        "172332.322000",
        "172333.331000",
        "172334.383000",
        "172335.332000",
        "172336.312000",
        "172337.358000",
        "172338.348000",
        "172339.344000",
        "172340.331000",
        "172341.326000",
        "172342.358000",
        "172343.339000",
        "172344.349000",
        "172345.336000",
        "172346.336000",
        "172347.307000",
        "172348.339000",
        "172349.343000",
        "172350.366000",
        "172351.324000",
        "172352.338000",
        "172353.326000",
        "172354.331000",
        "172355.288000",
        "172356.317000",
        "172357.366000",
        "172358.323000",
        "172359.328000",
        "172400.352000",
        "172401.399000",
        "172402.337000",
        "172403.339000",
        "172404.371000",
        "172405.352000",
        "172406.350000",
        "172407.348000",
        "172408.315000",
        "172409.352000",
        "172410.362000",
        "172411.320000",
        "172412.318000",
        "172413.324000",
        "172414.353000",
        "172415.346000",
        "172416.318000",
        "172417.330000",
        "172418.354000",
        "172419.323000",
        "172420.324000",
        "172421.378000",
        "172422.338000",
        "172423.340000",
        "172424.368000",
        "172425.339000",
        "172426.355000",
        "172427.328000",
        "172428.326000",
        "172429.309000",
        "172430.322000",
        "172431.333000",
        "172432.338000",
        "172433.341000",
        "172434.333000",
        "172435.353000",
        "172436.285000",
        "172437.326000",
        "172438.360000",
        "172439.388000",
        "172440.342000",
        "172441.331000",
        "172442.346000",
        "172443.331000",
        "172444.339000",
        "172445.303000",
        "172446.329000",
        "172447.296000",
        "172448.335000",
        "172449.331000",
        "172450.341000",
        "172451.339000",
        "172452.341000",
        "172453.345000",
        "172454.328000",
        "172455.347000",
        "172456.359000",
        "172457.385000",
        "172458.360000",
        "172459.341000",
        "172500.323000",
        "172501.344000",
        "172502.363000",
        "172503.365000",
        "172504.318000",
        "172505.303000",
        "172506.373000",
        "172507.320000",
        "172508.315000",
        "172509.331000",
        "172510.315000",
        "172511.315000",
        "172512.346000",
        "172513.351000",
        "172514.360000"
      ],
      "InstanceCreationTime": [
        "172119.513000",
        "172120.314000",
        "172121.290000",
        "172122.295000",
        "172123.328000",
        "172124.322000",
        "172125.334000",
        "172126.341000",
        "172127.404000",
        "172128.449000",
        "172129.350000",
        "172130.367000",
        "172131.346000",
        "172132.380000",
        "172133.322000",
        "172134.342000",
        "172135.349000",
        "172136.361000",
        "172137.305000",
        "172138.317000",
        "172139.317000",
        "172140.334000",
        "172141.298000",
        "172142.324000",
        "172143.325000",
        "172144.304000",
        "172145.315000",
        "172146.307000",
        "172147.329000",
        "172148.398000",
        "172149.379000",
        "172150.369000",
        "172151.338000",
        "172152.312000",
        "172153.323000",
        "172154.339000",
        "172155.323000",
        "172156.340000",
        "172157.326000",
        "172158.313000",
        "172159.313000",
        "172200.380000",
        "172201.350000",
        "172202.321000",
        "172203.324000",
        "172204.350000",
        "172205.358000",
        "172206.309000",
        "172207.306000",
        "172208.318000",
        "172209.334000",
        "172210.313000",
        "172211.318000",
        "172212.325000",
        "172213.336000",
        "172214.307000",
        "172215.339000",
        "172216.353000",
        "172217.338000",
        "172218.335000",
        "172219.322000",
        "172220.336000",
        "172221.341000",
        "172222.316000",
        "172223.328000",
        "172224.331000",
        "172225.328000",
        "172226.307000",
        "172227.315000",
        "172228.305000",
        "172229.330000",
        "172230.334000",
        "172231.328000",
        "172232.402000",
        "172233.358000",
        "172234.340000",
        "172235.326000",
        "172236.332000",
        "172237.321000",
        "172238.320000",
        "172239.317000",
        "172240.320000",
        "172241.298000",
        "172242.313000",
        "172243.386000",
        "172244.329000",
        "172245.328000",
        "172246.327000",
        "172247.291000",
        "172248.310000",
        "172249.332000",
        "172250.324000",
        "172251.289000",
        "172252.340000",
        "172253.305000",
        "172254.313000",
        "172255.333000",
        "172256.329000",
        "172257.311000",
        "172258.317000",
        "172259.339000",
        "172300.352000",
        "172301.315000",
        "172302.358000",
        "172303.344000",
        "172304.324000",
        "172305.348000",
        "172306.319000",
        "172307.342000",
        "172308.333000",
        "172309.327000",
        "172310.339000",
        "172311.329000",
        "172312.351000",
        "172313.313000",
        "172314.346000",
        "172315.351000",
        "172316.332000",
        "172317.340000",
        "172318.355000",
        "172319.322000",
        "172320.341000",
        "172321.361000",
        "172322.375000",
        "172323.346000",
        "172324.338000",
        "172325.326000",
        "172326.326000",
        "172327.338000",
        "172328.328000",
        "172329.338000",
        "172330.328000",
        "172331.321000",
        "172332.322000",
        "172333.331000",
        "172334.383000",
        "172335.332000",
        "172336.312000",
        "172337.358000",
        "172338.348000",
        "172339.344000",
        "172340.331000",
        "172341.326000",
        "172342.358000",
        "172343.339000",
        "172344.349000",
        "172345.336000",
        "172346.336000",
        "172347.307000",
        "172348.339000",
        "172349.343000",
        "172350.366000",
        "172351.324000",
        "172352.338000",
        "172353.326000",
        "172354.331000",
        "172355.288000",
        "172356.317000",
        "172357.366000",
        "172358.323000",
        "172359.328000",
        "172400.352000",
        "172401.399000",
        "172402.337000",
        "172403.339000",
        "172404.371000",
        "172405.352000",
        "172406.350000",
        "172407.348000",
        "172408.315000",
        "172409.352000",
        "172410.362000",
        "172411.320000",
        "172412.318000",
        "172413.324000",
        "172414.353000",
        "172415.346000",
        "172416.318000",
        "172417.330000",
        "172418.354000",
        "172419.323000",
        "172420.324000",
        "172421.378000",
        "172422.338000",
        "172423.340000",
        "172424.368000",
        "172425.339000",
        "172426.355000",
        "172427.328000",
        "172428.326000",
        "172429.309000",
        "172430.322000",
        "172431.333000",
        "172432.338000",
        "172433.341000",
        "172434.333000",
        "172435.353000",
        "172436.285000",
        "172437.326000",
        "172438.360000",
        "172439.388000",
        "172440.342000",
        "172441.331000",
        "172442.346000",
        "172443.331000",
        "172444.339000",
        "172445.303000",
        "172446.329000",
        "172447.296000",
        "172448.335000",
        "172449.331000",
        "172450.341000",
        "172451.339000",
        "172452.341000",
        "172453.345000",
        "172454.328000",
        "172455.347000",
        "172456.359000",
        "172457.385000",
        "172458.360000",
        "172459.341000",
        "172500.323000",
        "172501.344000",
        "172502.363000",
        "172503.365000",
        "172504.318000",
        "172505.303000",
        "172506.373000",
        "172507.320000",
        "172508.315000",
        "172509.331000",
        "172510.315000",
        "172511.315000",
        "172512.346000",
        "172513.351000",
        "172514.360000"
      ],
      "InstanceNumber": [
        1,
        2,
        3,
        4,
        5,
        6,
        7,
        8,
        9,
        10,
        11,
        12,
        13,
        14,
        15,
        16,
        17,
        18,
        19,
        20,
        21,
        22,
        23,
        24,
        25,
        26,
        27,
        28,
        29,
        30,
        31,
        32,
        33,
        34,
        35,
        36,
        37,
        38,
        39,
        40,
        41,
        42,
        43,
        44,
        45,
        46,
        47,
        48,
        49,
        50,
        51,
        52,
        53,
        54,
        55,
        56,
        57,
        58,
        59,
        60,
        61,
        62,
        63,
        64,
        65,
        66,
        67,
        68,
        69,
        70,
        71,
        72,
        73,
        74,
        75,
        76,
        77,
        78,
        79,
        80,
        81,
        82,
        83,
        84,
        85,
        86,
        87,
        88,
        89,
        90,
        91,
        92,
        93,
        94,
        95,
        96,
        97,
        98,
        99,
        100,
        101,
        102,
        103,
        104,
        105,
        106,
        107,
        108,
        109,
        110,
        111,
        112,
        113,
        114,
        115,
        116,
        117,
        118,
        119,
        120,
        121,
        122,
        123,
        124,
        125,
        126,
        127,
        128,
        129,
        130,
        131,
        132,
        133,
        134,
        135,
        136,
        137,
        138,
        139,
        140,
        141,
        142,
        143,
        144,
        145,
        146,
        147,
        148,
        149,
        150,
        151,
        152,
        153,
        154,
        155,
        156,
        157,
        158,
        159,
        160,
        161,
        162,
        163,
        164,
        165,
        166,
        167,
        168,
        169,
        170,
        171,
        172,
        173,
        174,
        175,
        176,
        177,
        178,
        179,
        180,
        181,
        182,
        183,
        184,
        185,
        186,
        187,
        188,
        189,
        190,
        191,
        192,
        193,
        194,
        195,
        196,
        197,
        198,
        199,
        200,
        201,
        202,
        203,
        204,
        205,
        206,
        207,
        208,
        209,
        210,
        211,
        212,
        213,
        214,
        215,
        216,
        217,
        218,
        219,
        220,
        221,
        222,
        223,
        224,
        225,
        226,
        227,
        228,
        229,
        230,
        231,
        232,
        233,
        234,
        235,
        236
      ],
      "LargestImagePixelValue": [
        983,
        1021,
        908,
        1010,
        1052,
        759,
        866,
        945,
        744,
        707,
        793,
        706,
        987,
        813,
        703,
        1098,
        720,
        743,
        950,
        809,
        742,
        774,
        902,
        767,
        695,
        714,
        744,
        799,
        800,
        736,
        966,
        1157,
        822,
        985,
        786,
        870,
        1124,
        822,
        750,
        1266,
        771,
        712,
        1077,
        785,
        699,
        1029,
        797,
        698,
        730,
        699,
        843,
        737,
        1090,
        1005,
        705,
        852,
        841,
        705,
        844,
        878,
        772,
        875,
        963,
        816,
        710,
        899,
        796,
        768,
        824,
        860,
        830,
        731,
        837,
        785,
        761,
        821,
        942,
        831,
        966,
        997,
        796,
        713,
        710,
        1030,
        813,
        758,
        690,
        928,
        722,
        748,
        693,
        942,
        1182,
        987,
        848,
        738,
        730,
        845,
        851,
        728,
        740,
        766,
        799,
        837,
        944,
        803,
        772,
        965,
        1019,
        794,
        761,
        905,
        909,
        816,
        713,
        898,
        788,
        737,
        960,
        1104,
        796,
        694,
        879,
        827,
        735,
        819,
        897,
        794,
        733,
        685,
        808,
        756,
        695,
        937,
        945,
        799,
        865,
        846,
        791,
        868,
        960,
        809,
        734,
        1176,
        1163,
        867,
        792,
        696,
        802,
        809,
        760,
        811,
        834,
        990,
        811,
        730,
        776,
        779,
        764,
        824,
        958,
        812,
        744,
        798,
        908,
        801,
        725,
        876,
        815,
        782,
        710,
        970,
        753,
        761,
        801,
        863,
        814,
        709,
        926,
        782,
        719,
        935,
        1195,
        1155,
        807,
        872,
        859,
        857,
        799,
        706,
        707,
        780,
        754,
        689,
        869,
        796,
        753,
        902,
        915,
        782,
        702,
        937,
        750,
        755,
        915,
        801,
        1208,
        743,
        694,
        1158,
        1009,
        708,
        718,
        790,
        728,
        686,
        914,
        816,
        735,
        851,
        1144,
        897,
        722,
        771,
        765,
        751,
        731,
        700,
        923,
        1307,
        853,
        696,
        794,
        799,
        762,
        708
      ],
      "WindowCenter": [
        367,
        366,
        365,
        366,
        365,
        362,
        364,
        364,
        362,
        362,
        364,
        362,
        365,
        363,
        362,
        366,
        362,
        362,
        364,
        363,
        362,
        363,
        365,
        364,
        362,
        362,
        365,
        365,
        365,
        365,
        367,
        367,
        364,
        366,
        364,
        364,
        366,
        363,
        362,
        367,
        363,
        362,
        365,
        363,
        362,
        365,
        363,
        361,
        364,
        363,
        364,
        363,
        366,
        365,
        361,
        363,
        363,
        362,
        364,
        364,
        362,
        364,
        364,
        363,
        361,
        364,
        363,
        362,
        363,
