{
  "AcquisitionMatrixPE": 96,
  "AcquisitionNumber": 1,
  "BandwidthPerPixelPhaseEncode": 18.939,
  "BaseResolution": 96,
  "BodyPartExamined": "BRAIN",
  "ConsistencyInfo": "N4_VE11C_LATEST_20160120",
  "ConversionSoftware": "dcm2niix",
  "ConversionSoftwareVersion": "v1.0.20170923 (OpenJPEG build) GCC6.3.0",
  "DerivedVendorReportedEchoSpacing": 0.000550011,
  "DeviceSerialNumber": "66112",
  "DwellTime": 2.2e-06,
  "EchoTime": 0.033,
  "EchoTrainLength": 96,
  "EffectiveEchoSpacing": 0.000550011,
  "FlipAngle": 59,
  "ImageType": [
    "ORIGINAL",
    "PRIMARY",
    "FMRI",
    "NONE",
    "ND",
    "NORM",
    "MOSAIC"
  ],
  "InstitutionAddress": "Maynard_3_Hanover_NH_US_03755",
  "InstitutionName": "Dartmouth_College_-_PBS",
  "MagneticFieldStrength": 3,
  "Manufacturer": "Siemens",
  "ManufacturersModelName": "Prisma",
  "Modality": "MR",
  "MultibandAccelerationFactor": 4,
  "PercentPhaseFOV": 100,
  "PhaseEncodingDirection": "j-",
  "PhaseEncodingSteps": 96,
  "PhaseResolution": 1,
  "ProcedureStepDescription": "Gobbini_Matteo_1038_hyperface",
  "ProtocolName": "func_run-02_task-visualmemory",
  "PulseSequenceDetails": "%SiemensSeq%_ep2d_bold",
  "ReceiveCoilActiveElements": "HEA;HEP",
  "ReceiveCoilName": "Head_32",
  "ReconMatrixPE": 96,
  "RepetitionTime": 1,
  "ScanOptions": "FS",
  "ScanningSequence": "EP",
  "SequenceName": "_epfid2d1_96",
  "SequenceVariant": "SK",
  "SeriesDescription": "func_run-02_task-visualmemory",
  "SliceTiming": [
    0.735,
    0,
    0.49,
    0.0825,
    0.5725,
    0.1625,
    0.6525,
    0.3275,
    0.8175,
    0.4075,
    0.8975,
    0.245,
    0.735,
    0,
    0.49,
    0.0825,
    0.5725,
    0.1625,
    0.6525,
    0.3275,
    0.8175,
    0.4075,
    0.8975,
    0.245,
    0.735,
    0,
    0.49,
    0.0825,
    0.5725,
    0.1625,
    0.6525,
    0.3275,
    0.8175,
    0.4075,
    0.8975,
    0.245,
    0.735,
    0,
    0.49,
    0.0825,
    0.5725,
    0.1625,
    0.6525,
    0.3275,
    0.8175,
    0.4075,
    0.8975,
    0.245
  ],
  "SoftwareVersions": "syngo_MR_E11",
  "StationName": "AWP66112",
  "TotalReadoutTime": 0.0522511,
  "time": {
    "samples": {
      "AcquisitionNumber": [
        1,
        2,
        3,
        4,
        5,
        6,
        7,
        8,
        9,
        10,
        11,
        12,
        13,
        14,
        15,
        16,
        17,
        18,
        19,
        20,
        21,
        22,
        23,
        24,
        25,
        26,
        27,
        28,
        29,
        30,
        31,
        32,
        33,
        34,
        35,
        36,
        37,
        38,
        39,
        40,
        41,
        42,
        43,
        44,
        45,
        46,
        47,
        48,
        49,
        50,
        51,
        52,
        53,
        54,
        55,
        56,
        57,
        58,
        59,
        60,
        61,
        62,
        63,
        64,
        65,
        66,
        67,
        68,
        69,
        70,
        71,
        72,
        73,
        74,
        75,
        76,
        77,
        78,
        79,
        80,
        81,
        82,
        83,
        84,
        85,
        86,
        87,
        88,
        89,
        90,
        91,
        92,
        93,
        94,
        95,
        96,
        97,
        98,
        99,
        100,
        101,
        102,
        103,
        104,
        105,
        106,
        107,
        108,
        109,
        110,
        111,
        112,
        113,
        114,
        115,
        116,
        117,
        118,
        119,
        120,
        121,
        122,
        123,
        124,
        125,
        126,
        127,
        128,
        129,
        130,
        131,
        132,
        133,
        134,
        135,
        136,
        137,
        138,
        139,
        140,
        141,
        142,
        143,
        144,
        145,
        146,
        147,
        148,
        149,
        150,
        151,
        152,
        153,
        154,
        155,
        156,
        157,
        158,
        159,
        160,
        161,
        162,
        163,
        164,
        165,
        166,
        167,
        168,
        169,
        170,
        171,
        172,
        173,
        174,
        175,
        176,
        177,
        178,
        179,
        180,
        181,
        182,
        183,
        184,
        185,
        186,
        187,
        188,
        189,
        190,
        191,
        192,
        193,
        194,
        195,
        196,
        197,
        198,
        199,
        200,
        201,
        202,
        203,
        204,
        205,
        206,
        207,
        208,
        209,
        210,
        211,
        212,
        213,
        214,
        215,
        216,
        217,
        218,
        219,
        220,
        221,
        222,
        223,
        224,
        225,
        226,
        227,
        228,
        229,
        230,
        231,
        232,
        233,
        234,
        235,
        236,
        237,
        238,
        239,
        240,
        241,
        242,
        243,
        244,
        245,
        246,
        247,
        248,
        249,
        250,
        251,
        252,
        253,
        254,
        255,
        256,
        257,
        258,
        259,
        260,
        261,
        262,
        263,
        264,
        265,
        266,
        267,
        268,
        269,
        270,
        271,
        272,
        273,
        274,
        275,
        276,
        277,
        278,
        279,
        280,
        281,
        282,
        283,
        284,
        285,
        286,
        287,
        288
      ],
      "AcquisitionTime": [
        "172629.270000",
        "172630.270000",
        "172631.270000",
        "172632.270000",
        "172633.270000",
        "172634.270000",
        "172635.270000",
        "172636.270000",
        "172637.270000",
        "172638.270000",
        "172639.270000",
        "172640.270000",
        "172641.270000",
        "172642.270000",
        "172643.270000",
        "172644.270000",
        "172645.270000",
        "172646.270000",
        "172647.270000",
        "172648.270000",
        "172649.270000",
        "172650.270000",
        "172651.270000",
        "172652.270000",
        "172653.270000",
        "172654.270000",
        "172655.270000",
        "172656.270000",
        "172657.270000",
        "172658.270000",
        "172659.270000",
        "172700.270000",
        "172701.270000",
        "172702.270000",
        "172703.270000",
        "172704.270000",
        "172705.270000",
        "172706.270000",
        "172707.270000",
        "172708.270000",
        "172709.270000",
        "172710.270000",
        "172711.270000",
        "172712.270000",
        "172713.270000",
        "172714.270000",
        "172715.270000",
        "172716.270000",
        "172717.270000",
        "172718.270000",
        "172719.270000",
        "172720.270000",
        "172721.270000",
        "172722.270000",
        "172723.270000",
        "172724.270000",
        "172725.270000",
        "172726.270000",
        "172727.270000",
        "172728.270000",
        "172729.270000",
        "172730.270000",
        "172731.270000",
        "172732.270000",
        "172733.270000",
        "172734.270000",
        "172735.270000",
        "172736.270000",
        "172737.270000",
        "172738.270000",
        "172739.270000",
        "172740.270000",
        "172741.270000",
        "172742.270000",
        "172743.270000",
        "172744.270000",
        "172745.270000",
        "172746.270000",
        "172747.270000",
        "172748.270000",
        "172749.270000",
        "172750.270000",
        "172751.270000",
        "172752.270000",
        "172753.270000",
        "172754.270000",
        "172755.270000",
        "172756.270000",
        "172757.270000",
        "172758.270000",
        "172759.270000",
        "172800.270000",
        "172801.270000",
        "172802.270000",
        "172803.270000",
        "172804.270000",
        "172805.270000",
        "172806.270000",
        "172807.270000",
        "172808.270000",
        "172809.270000",
        "172810.270000",
        "172811.270000",
        "172812.270000",
        "172813.270000",
        "172814.270000",
        "172815.270000",
        "172816.270000",
        "172817.270000",
        "172818.270000",
        "172819.270000",
        "172820.270000",
        "172821.270000",
        "172822.270000",
        "172823.270000",
        "172824.270000",
        "172825.270000",
        "172826.270000",
        "172827.270000",
        "172828.270000",
        "172829.270000",
        "172830.270000",
        "172831.270000",
        "172832.270000",
        "172833.270000",
        "172834.270000",
        "172835.270000",
        "172836.270000",
        "172837.270000",
        "172838.270000",
        "172839.270000",
        "172840.270000",
        "172841.270000",
        "172842.270000",
        "172843.270000",
        "172844.270000",
        "172845.270000",
        "172846.270000",
        "172847.270000",
        "172848.270000",
        "172849.270000",
        "172850.270000",
        "172851.270000",
        "172852.270000",
        "172853.270000",
        "172854.270000",
        "172855.270000",
        "172856.270000",
        "172857.270000",
        "172858.270000",
        "172859.270000",
        "172900.270000",
        "172901.270000",
        "172902.270000",
        "172903.270000",
        "172904.270000",
        "172905.270000",
        "172906.270000",
        "172907.270000",
        "172908.270000",
        "172909.270000",
        "172910.270000",
        "172911.270000",
        "172912.270000",
        "172913.270000",
        "172914.270000",
        "172915.270000",
        "172916.270000",
        "172917.270000",
        "172918.270000",
        "172919.270000",
        "172920.270000",
        "172921.270000",
        "172922.270000",
        "172923.270000",
        "172924.270000",
        "172925.270000",
        "172926.270000",
        "172927.270000",
        "172928.270000",
        "172929.270000",
        "172930.270000",
        "172931.270000",
        "172932.270000",
        "172933.270000",
        "172934.270000",
        "172935.270000",
        "172936.270000",
        "172937.270000",
        "172938.270000",
        "172939.270000",
        "172940.270000",
        "172941.270000",
        "172942.270000",
        "172943.270000",
        "172944.270000",
        "172945.270000",
        "172946.270000",
        "172947.270000",
        "172948.270000",
        "172949.270000",
        "172950.270000",
        "172951.270000",
        "172952.270000",
        "172953.270000",
        "172954.270000",
        "172955.270000",
        "172956.270000",
        "172957.270000",
        "172958.270000",
        "172959.270000",
        "173000.270000",
        "173001.270000",
        "173002.270000",
        "173003.270000",
        "173004.270000",
        "173005.270000",
        "173006.270000",
        "173007.270000",
        "173008.270000",
        "173009.270000",
        "173010.270000",
        "173011.270000",
        "173012.270000",
        "173013.270000",
        "173014.270000",
        "173015.270000",
        "173016.270000",
        "173017.270000",
        "173018.270000",
        "173019.270000",
        "173020.270000",
        "173021.270000",
        "173022.270000",
        "173023.270000",
        "173024.270000",
        "173025.270000",
        "173026.270000",
        "173027.270000",
        "173028.270000",
        "173029.270000",
        "173030.270000",
        "173031.270000",
        "173032.270000",
        "173033.270000",
        "173034.270000",
        "173035.270000",
        "173036.270000",
        "173037.270000",
        "173038.270000",
        "173039.270000",
        "173040.270000",
        "173041.270000",
        "173042.270000",
        "173043.270000",
        "173044.270000",
        "173045.270000",
        "173046.270000",
        "173047.270000",
        "173048.270000",
        "173049.270000",
        "173050.270000",
        "173051.270000",
        "173052.270000",
        "173053.270000",
        "173054.270000",
        "173055.270000",
        "173056.270000",
        "173057.270000",
        "173058.270000",
        "173059.270000",
        "173100.270000",
        "173101.270000",
        "173102.270000",
        "173103.270000",
        "173104.270000",
        "173105.270000",
        "173106.270000",
        "173107.270000",
        "173108.270000",
        "173109.270000",
        "173110.270000",
        "173111.270000",
        "173112.270000",
        "173113.270000",
        "173114.270000",
        "173115.270000",
        "173116.270000"
      ],
      "ContentTime": [
        "172630.113000",
        "172630.964000",
        "172631.992000",
        "172632.944000",
        "172633.947000",
        "172634.995000",
        "172635.966000",
        "172636.946000",
        "172637.957000",
        "172638.973000",
        "172639.958000",
        "172640.952000",
        "172642.011000",
        "172642.946000",
        "172643.948000",
        "172644.969000",
        "172645.948000",
        "172646.974000",
        "172647.967000",
        "172648.948000",
        "172649.971000",
        "172650.945000",
        "172651.949000",
        "172652.962000",
        "172653.965000",
        "172654.942000",
        "172655.974000",
        "172656.968000",
        "172657.955000",
        "172658.941000",
        "172659.938000",
        "172700.976000",
        "172701.958000",
        "172702.972000",
        "172703.970000",
        "172704.939000",
        "172705.960000",
        "172706.955000",
        "172707.937000",
        "172708.960000",
        "172709.964000",
        "172710.981000",
        "172711.956000",
        "172713.020000",
        "172714.024000",
        "172714.972000",
        "172715.956000",
        "172716.955000",
        "172717.922000",
        "172718.950000",
        "172719.946000",
        "172720.951000",
        "172721.947000",
        "172722.942000",
        "172723.956000",
        "172724.967000",
        "172725.950000",
        "172726.946000",
        "172727.925000",
        "172728.945000",
        "172729.945000",
        "172730.946000",
        "172731.954000",
        "172732.942000",
        "172733.976000",
        "172734.986000",
        "172735.949000",
        "172736.970000",
        "172737.937000",
        "172738.949000",
        "172739.945000",
        "172740.972000",
        "172741.924000",
        "172742.959000",
        "172743.935000",
        "172744.988000",
        "172745.961000",
        "172746.949000",
        "172747.949000",
        "172748.943000",
        "172749.949000",
        "172750.946000",
        "172751.952000",
        "172753.037000",
        "172753.968000",
        "172754.978000",
        "172755.958000",
        "172756.973000",
        "172757.951000",
        "172758.943000",
        "172759.947000",
        "172800.934000",
        "172801.943000",
        "172802.962000",
        "172803.964000",
        "172804.961000",
        "172805.950000",
        "172806.992000",
        "172807.981000",
        "172808.950000",
        "172809.954000",
        "172810.953000",
        "172811.961000",
        "172812.968000",
        "172813.932000",
        "172814.949000",
        "172815.971000",
        "172816.953000",
        "172817.968000",
        "172818.954000",
        "172819.985000",
        "172820.966000",
        "172821.967000",
        "172822.945000",
        "172823.949000",
        "172824.963000",
        "172825.938000",
        "172826.941000",
        "172827.952000",
        "172828.939000",
        "172830.003000",
        "172830.976000",
        "172831.994000",
        "172833.006000",
        "172833.993000",
        "172834.955000",
        "172835.963000",
        "172836.970000",
        "172837.966000",
        "172838.946000",
        "172839.960000",
        "172840.984000",
        "172841.970000",
        "172842.967000",
        "172843.966000",
        "172845.015000",
        "172845.986000",
        "172846.966000",
        "172847.967000",
        "172849.010000",
        "172849.968000",
        "172850.974000",
        "172851.980000",
        "172852.958000",
        "172853.953000",
        "172855.003000",
        "172855.945000",
        "172856.959000",
        "172857.954000",
        "172858.966000",
        "172859.959000",
        "172900.959000",
        "172901.945000",
        "172902.951000",
        "172903.966000",
        "172904.974000",
        "172905.956000",
        "172906.989000",
        "172907.962000",
        "172908.935000",
        "172909.950000",
        "172910.939000",
        "172911.960000",
        "172913.007000",
        "172913.960000",
        "172914.994000",
        "172915.975000",
        "172916.939000",
        "172918.000000",
        "172919.003000",
        "172919.966000",
        "172920.973000",
        "172921.944000",
        "172922.958000",
        "172923.962000",
        "172924.978000",
        "172926.007000",
        "172926.962000",
        "172927.976000",
        "172929.022000",
        "172930.018000",
        "172930.973000",
        "172932.006000",
        "172933.022000",
        "172933.934000",
        "172934.981000",
        "172935.953000",
        "172936.971000",
        "172938.002000",
        "172938.977000",
        "172940.079000",
        "172940.954000",
        "172941.975000",
        "172942.959000",
        "172943.952000",
        "172944.959000",
        "172945.946000",
        "172946.972000",
        "172947.960000",
        "172948.949000",
        "172949.944000",
        "172950.965000",
        "172951.982000",
        "172952.959000",
        "172953.944000",
        "172954.966000",
        "172955.976000",
        "172956.933000",
        "172957.970000",
        "172958.977000",
        "172959.990000",
        "173001.081000",
        "173001.969000",
        "173002.963000",
        "173003.939000",
        "173004.969000",
        "173005.946000",
        "173006.945000",
        "173008.026000",
        "173008.934000",
        "173009.972000",
        "173010.942000",
        "173012.007000",
        "173012.948000",
        "173013.938000",
        "173014.948000",
        "173016.003000",
        "173016.942000",
        "173017.985000",
        "173018.983000",
        "173019.942000",
        "173020.965000",
        "173021.967000",
        "173022.976000",
        "173023.967000",
        "173024.937000",
        "173025.965000",
        "173026.955000",
        "173027.968000",
        "173028.975000",
        "173029.939000",
        "173030.933000",
        "173031.976000",
        "173032.945000",
        "173033.951000",
        "173034.960000",
        "173035.953000",
        "173036.931000",
        "173037.970000",
        "173038.942000",
        "173039.963000",
        "173040.974000",
        "173041.962000",
        "173042.942000",
        "173044.024000",
        "173044.977000",
        "173045.973000",
        "173046.950000",
        "173047.947000",
        "173049.019000",
        "173049.898000",
        "173050.954000",
        "173051.965000",
        "173053.001000",
        "173053.980000",
        "173054.930000",
        "173055.960000",
        "173056.949000",
        "173057.951000",
        "173058.970000",
        "173059.953000",
        "173100.957000",
        "173101.961000",
        "173102.956000",
        "173103.964000",
        "173104.921000",
        "173105.970000",
        "173106.965000",
        "173107.990000",
        "173108.966000",
        "173109.991000",
        "173110.941000",
        "173111.956000",
        "173112.957000",
        "173113.960000",
        "173114.949000",
        "173115.977000",
        "173116.980000"
      ],
      "InstanceCreationTime": [
        "172630.113000",
        "172630.964000",
        "172631.992000",
        "172632.944000",
        "172633.947000",
        "172634.995000",
        "172635.966000",
        "172636.946000",
        "172637.957000",
        "172638.973000",
        "172639.958000",
        "172640.952000",
        "172642.011000",
        "172642.946000",
        "172643.948000",
        "172644.969000",
        "172645.948000",
        "172646.974000",
        "172647.967000",
        "172648.948000",
        "172649.971000",
        "172650.945000",
        "172651.949000",
        "172652.962000",
        "172653.965000",
        "172654.942000",
        "172655.974000",
        "172656.968000",
        "172657.955000",
        "172658.941000",
        "172659.938000",
        "172700.976000",
        "172701.958000",
        "172702.972000",
        "172703.970000",
        "172704.939000",
        "172705.960000",
        "172706.955000",
        "172707.937000",
        "172708.960000",
        "172709.964000",
        "172710.981000",
        "172711.956000",
        "172713.020000",
        "172714.024000",
        "172714.972000",
        "172715.956000",
        "172716.955000",
        "172717.922000",
        "172718.950000",
        "172719.946000",
        "172720.951000",
        "172721.947000",
        "172722.942000",
        "172723.956000",
        "172724.967000",
        "172725.950000",
        "172726.946000",
        "172727.925000",
        "172728.945000",
        "172729.945000",
        "172730.946000",
        "172731.954000",
        "172732.942000",
        "172733.976000",
        "172734.986000",
        "172735.949000",
        "172736.970000",
        "172737.937000",
        "172738.949000",
        "172739.945000",
        "172740.972000",
        "172741.924000",
        "172742.959000",
        "172743.935000",
        "172744.988000",
        "172745.961000",
        "172746.949000",
        "172747.949000",
        "172748.943000",
        "172749.949000",
        "172750.946000",
        "172751.952000",
        "172753.037000",
        "172753.968000",
        "172754.978000",
        "172755.958000",
        "172756.973000",
        "172757.951000",
        "172758.943000",
        "172759.947000",
        "172800.934000",
        "172801.943000",
        "172802.962000",
        "172803.964000",
        "172804.961000",
        "172805.950000",
        "172806.992000",
        "172807.981000",
        "172808.950000",
        "172809.954000",
        "172810.953000",
        "172811.961000",
        "172812.968000",
        "172813.932000",
        "172814.949000",
        "172815.971000",
        "172816.953000",
        "172817.968000",
        "172818.954000",
        "172819.985000",
        "172820.966000",
        "172821.967000",
        "172822.945000",
        "172823.949000",
        "172824.963000",
        "172825.938000",
        "172826.941000",
        "172827.952000",
        "172828.939000",
        "172830.003000",
        "172830.976000",
        "172831.994000",
        "172833.006000",
        "172833.993000",
        "172834.955000",
        "172835.963000",
        "172836.970000",
        "172837.966000",
        "172838.946000",
        "172839.960000",
        "172840.984000",
        "172841.970000",
        "172842.967000",
        "172843.966000",
        "172845.015000",
        "172845.986000",
        "172846.966000",
        "172847.967000",
        "172849.010000",
        "172849.968000",
        "172850.974000",
        "172851.980000",
        "172852.958000",
        "172853.953000",
        "172855.003000",
        "172855.945000",
        "172856.959000",
        "172857.954000",
        "172858.966000",
        "172859.959000",
        "172900.959000",
        "172901.945000",
        "172902.951000",
        "172903.966000",
        "172904.974000",
        "172905.956000",
        "172906.989000",
        "172907.962000",
        "172908.935000",
        "172909.950000",
        "172910.939000",
        "172911.960000",
        "172913.007000",
        "172913.960000",
        "172914.994000",
        "172915.975000",
        "172916.939000",
        "172918.000000",
        "172919.003000",
        "172919.966000",
        "172920.973000",
        "172921.944000",
        "172922.958000",
        "172923.962000",
        "172924.978000",
        "172926.007000",
        "172926.962000",
        "172927.976000",
        "172929.022000",
        "172930.018000",
        "172930.973000",
        "172932.006000",
        "172933.022000",
        "172933.934000",
        "172934.981000",
        "172935.953000",
        "172936.971000",
        "172938.002000",
        "172938.977000",
        "172940.079000",
        "172940.954000",
        "172941.975000",
        "172942.959000",
        "172943.952000",
        "172944.959000",
        "172945.946000",
        "172946.972000",
        "172947.960000",
        "172948.949000",
        "172949.944000",
        "172950.965000",
        "172951.982000",
        "172952.959000",
        "172953.944000",
        "172954.966000",
        "172955.976000",
        "172956.933000",
        "172957.970000",
        "172958.977000",
        "172959.990000",
        "173001.081000",
        "173001.969000",
        "173002.963000",
        "173003.939000",
        "173004.969000",
        "173005.946000",
        "173006.945000",
        "173008.026000",
        "173008.934000",
        "173009.972000",
        "173010.942000",
        "173012.007000",
        "173012.948000",
        "173013.938000",
        "173014.948000",
        "173016.003000",
        "173016.942000",
        "173017.985000",
        "173018.983000",
        "173019.942000",
        "173020.965000",
        "173021.967000",
        "173022.976000",
        "173023.967000",
        "173024.937000",
        "173025.965000",
        "173026.955000",
        "173027.968000",
        "173028.975000",
        "173029.939000",
        "173030.933000",
        "173031.976000",
        "173032.945000",
        "173033.951000",
        "173034.960000",
        "173035.953000",
        "173036.931000",
        "173037.970000",
        "173038.942000",
        "173039.963000",
        "173040.974000",
        "173041.962000",
        "173042.942000",
        "173044.024000",
        "173044.977000",
        "173045.973000",
        "173046.950000",
        "173047.947000",
        "173049.019000",
        "173049.898000",
        "173050.954000",
        "173051.965000",
        "173053.001000",
        "173053.980000",
        "173054.930000",
        "173055.960000",
        "173056.949000",
        "173057.951000",
        "173058.970000",
        "173059.953000",
        "173100.957000",
        "173101.961000",
        "173102.956000",
        "173103.964000",
        "173104.921000",
        "173105.970000",
        "173106.965000",
        "173107.990000",
        "173108.966000",
        "173109.991000",
        "173110.941000",
        "173111.956000",
        "173112.957000",
        "173113.960000",
        "173114.949000",
        "173115.977000",
        "173116.980000"
      ],
      "InstanceNumber": [
        1,
        2,
        3,
        4,
        5,
        6,
        7,
        8,
        9,
        10,
        11,
        12,
        13,
        14,
        15,
        16,
        17,
        18,
        19,
        20,
        21,
        22,
        23,
        24,
        25,
        26,
        27,
        28,
        29,
        30,
        31,
        32,
        33,
        34,
        35,
        36,
        37,
        38,
        39,
        40,
        41,
        42,
        43,
        44,
        45,
        46,
        47,
        48,
        49,
        50,
        51,
        52,
        53,
        54,
        55,
        56,
        57,
        58,
        59,
        60,
        61,
        62,
        63,
        64,
        65,
        66,
        67,
        68,
        69,
        70,
        71,
        72,
        73,
        74,
        75,
        76,
        77,
        78,
        79,
        80,
        81,
        82,
        83,
        84,
        85,
        86,
        87,
        88,
        89,
        90,
        91,
        92,
        93,
        94,
        95,
        96,
        97,
        98,
        99,
        100,
        101,
        102,
        103,
        104,
        105,
        106,
        107,
        108,
        109,
        110,
        111,
        112,
        113,
        114,
        115,
        116,
        117,
        118,
        119,
        120,
        121,
        122,
        123,
        124,
        125,
        126,
        127,
        128,
        129,
        130,
        131,
        132,
        133,
        134,
        135,
        136,
        137,
        138,
        139,
        140,
        141,
        142,
        143,
        144,
        145,
        146,
        147,
        148,
        149,
        150,
        151,
        152,
        153,
        154,
        155,
        156,
        157,
        158,
        159,
        160,
        161,
        162,
        163,
        164,
        165,
        166,
        167,
        168,
        169,
        170,
        171,
        172,
        173,
        174,
        175,
        176,
        177,
        178,
        179,
        180,
        181,
        182,
        183,
        184,
        185,
        186,
        187,
        188,
        189,
        190,
        191,
        192,
        193,
        194,
        195,
        196,
