{
  "AcquisitionMatrixPE": 96,
  "AcquisitionNumber": 1,
  "BandwidthPerPixelPhaseEncode": 18.939,
  "BaseResolution": 96,
  "BodyPartExamined": "BRAIN",
  "ConsistencyInfo": "N4_VE11C_LATEST_20160120",
  "ConversionSoftware": "dcm2niix",
  "ConversionSoftwareVersion": "v1.0.20170923 (OpenJPEG build) GCC6.3.0",
  "DerivedVendorReportedEchoSpacing": 0.000550011,
  "DeviceSerialNumber": "66112",
  "DwellTime": 2.2e-06,
  "EchoTime": 0.033,
  "EchoTrainLength": 96,
  "EffectiveEchoSpacing": 0.000550011,
  "FlipAngle": 59,
  "ImageType": [
    "ORIGINAL",
    "PRIMARY",
    "FMRI",
    "NONE",
    "ND",
    "NORM",
    "MOSAIC"
  ],
  "InstitutionAddress": "Maynard_3_Hanover_NH_US_03755",
  "InstitutionName": "Dartmouth_College_-_PBS",
  "MagneticFieldStrength": 3,
  "Manufacturer": "Siemens",
  "ManufacturersModelName": "Prisma",
  "Modality": "MR",
  "MultibandAccelerationFactor": 4,
  "PercentPhaseFOV": 100,
  "PhaseEncodingDirection": "j-",
  "PhaseEncodingSteps": 96,
  "PhaseResolution": 1,
  "ProcedureStepDescription": "Gobbini_Matteo_1038_hyperface",
  "ProtocolName": "func_run-08_task-visualmemory",
  "PulseSequenceDetails": "%SiemensSeq%_ep2d_bold",
  "ReceiveCoilActiveElements": "HEA;HEP",
  "ReceiveCoilName": "Head_32",
  "ReconMatrixPE": 96,
  "RepetitionTime": 1,
  "ScanOptions": "FS",
  "ScanningSequence": "EP",
  "SequenceName": "_epfid2d1_96",
  "SequenceVariant": "SK",
  "SeriesDescription": "func_run-08_task-visualmemory",
  "SliceTiming": [
    0.735,
    0,
    0.49,
    0.0825,
    0.5725,
    0.1625,
    0.6525,
    0.3275,
    0.8175,
    0.4075,
    0.8975,
    0.245,
    0.735,
    0,
    0.49,
    0.0825,
    0.5725,
    0.1625,
    0.6525,
    0.3275,
    0.8175,
    0.4075,
    0.8975,
    0.245,
    0.735,
    0,
    0.49,
    0.0825,
    0.5725,
    0.1625,
    0.6525,
    0.3275,
    0.8175,
    0.4075,
    0.8975,
    0.245,
    0.735,
    0,
    0.49,
    0.0825,
    0.5725,
    0.1625,
    0.6525,
    0.3275,
    0.8175,
    0.4075,
    0.8975,
    0.245
  ],
  "SoftwareVersions": "syngo_MR_E11",
  "StationName": "AWP66112",
  "TotalReadoutTime": 0.0522511,
  "time": {
    "samples": {
      "AcquisitionNumber": [
        1,
        2,
        3,
        4,
        5,
        6,
        7,
        8,
        9,
        10,
        11,
        12,
        13,
        14,
        15,
        16,
        17,
        18,
        19,
        20,
        21,
        22,
        23,
        24,
        25,
        26,
        27,
        28,
        29,
        30,
        31,
        32,
        33,
        34,
        35,
        36,
        37,
        38,
        39,
        40,
        41,
        42,
        43,
        44,
        45,
        46,
        47,
        48,
        49,
        50,
        51,
        52,
        53,
        54,
        55,
        56,
        57,
        58,
        59,
        60,
        61,
        62,
        63,
        64,
        65,
        66,
        67,
        68,
        69,
        70,
        71,
        72,
        73,
        74,
        75,
        76,
        77,
        78,
        79,
        80,
        81,
        82,
        83,
        84,
        85,
        86,
        87,
        88,
        89,
        90,
        91,
        92,
        93,
        94,
        95,
        96,
        97,
        98,
        99,
        100,
        101,
        102,
        103,
        104,
        105,
        106,
        107,
        108,
        109,
        110,
        111,
        112,
        113,
        114,
        115,
        116,
        117,
        118,
        119,
        120,
        121,
        122,
        123,
        124,
        125,
        126,
        127,
        128,
        129,
        130,
        131,
        132,
        133,
        134,
        135,
        136,
        137,
        138,
        139,
        140,
        141,
        142,
        143,
        144,
        145,
        146,
        147,
        148,
        149,
        150,
        151,
        152,
        153,
        154,
        155,
        156,
        157,
        158,
        159,
        160,
        161,
        162,
        163,
        164,
        165,
        166,
        167,
        168,
        169,
        170,
        171,
        172,
        173,
        174,
        175,
        176,
        177,
        178,
        179,
        180,
        181,
        182,
        183,
        184,
        185,
        186,
        187,
        188,
        189,
        190,
        191,
        192,
        193,
        194,
        195,
        196,
        197,
        198,
        199,
        200,
        201,
        202,
        203,
        204,
        205,
        206,
        207,
        208,
        209,
        210,
        211,
        212,
        213,
        214,
        215,
        216,
        217,
        218,
        219,
        220,
        221,
        222,
        223,
        224,
        225,
        226,
        227,
        228,
        229,
        230,
        231,
        232,
        233,
        234,
        235,
        236,
        237,
        238,
        239,
        240,
        241,
        242,
        243,
        244,
        245,
        246,
        247,
        248,
        249,
        250,
        251,
        252,
        253,
        254,
        255,
        256,
        257,
        258,
        259,
        260,
        261,
        262,
        263,
        264,
        265,
        266,
        267,
        268,
        269,
        270,
        271,
        272,
        273,
        274,
        275,
        276,
        277,
        278,
        279,
        280,
        281,
        282,
        283,
        284,
        285,
        286,
        287,
        288
      ],
      "AcquisitionTime": [
        "175903.965000",
        "175904.965000",
        "175905.965000",
        "175906.965000",
        "175907.965000",
        "175908.965000",
        "175909.965000",
        "175910.965000",
        "175911.965000",
        "175912.965000",
        "175913.965000",
        "175914.965000",
        "175915.965000",
        "175916.965000",
        "175917.965000",
        "175918.965000",
        "175919.965000",
        "175920.965000",
        "175921.965000",
        "175922.965000",
        "175923.965000",
        "175924.965000",
        "175925.965000",
        "175926.965000",
        "175927.965000",
        "175928.965000",
        "175929.965000",
        "175930.965000",
        "175931.965000",
        "175932.965000",
        "175933.965000",
        "175934.965000",
        "175935.965000",
        "175936.965000",
        "175937.965000",
        "175938.965000",
        "175939.965000",
        "175940.965000",
        "175941.965000",
        "175942.965000",
        "175943.965000",
        "175944.965000",
        "175945.965000",
        "175946.965000",
        "175947.965000",
        "175948.965000",
        "175949.965000",
        "175950.965000",
        "175951.965000",
        "175952.965000",
        "175953.965000",
        "175954.965000",
        "175955.965000",
        "175956.965000",
        "175957.965000",
        "175958.965000",
        "175959.965000",
        "180000.965000",
        "180001.965000",
        "180002.965000",
        "180003.965000",
        "180004.965000",
        "180005.965000",
        "180006.965000",
        "180007.965000",
        "180008.965000",
        "180009.965000",
        "180010.965000",
        "180011.965000",
        "180012.965000",
        "180013.965000",
        "180014.965000",
        "180015.965000",
        "180016.965000",
        "180017.965000",
        "180018.965000",
        "180019.965000",
        "180020.965000",
        "180021.965000",
        "180022.965000",
        "180023.965000",
        "180024.965000",
        "180025.965000",
        "180026.965000",
        "180027.965000",
        "180028.965000",
        "180029.965000",
        "180030.965000",
        "180031.965000",
        "180032.965000",
        "180033.965000",
        "180034.965000",
        "180035.965000",
        "180036.965000",
        "180037.965000",
        "180038.965000",
        "180039.965000",
        "180040.965000",
        "180041.965000",
        "180042.965000",
        "180043.965000",
        "180044.965000",
        "180045.965000",
        "180046.965000",
        "180047.965000",
        "180048.965000",
        "180049.965000",
        "180050.965000",
        "180051.965000",
        "180052.965000",
        "180053.965000",
        "180054.965000",
        "180055.965000",
        "180056.965000",
        "180057.965000",
        "180058.965000",
        "180059.965000",
        "180100.965000",
        "180101.965000",
        "180102.965000",
        "180103.965000",
        "180104.965000",
        "180105.965000",
        "180106.965000",
        "180107.965000",
        "180108.965000",
        "180109.965000",
        "180110.965000",
        "180111.965000",
        "180112.965000",
        "180113.965000",
        "180114.965000",
        "180115.965000",
        "180116.965000",
        "180117.965000",
        "180118.965000",
        "180119.965000",
        "180120.965000",
        "180121.965000",
        "180122.965000",
        "180123.965000",
        "180124.965000",
        "180125.965000",
        "180126.965000",
        "180127.965000",
        "180128.965000",
        "180129.965000",
        "180130.965000",
        "180131.965000",
        "180132.965000",
        "180133.965000",
        "180134.965000",
        "180135.965000",
        "180136.965000",
        "180137.965000",
        "180138.965000",
        "180139.965000",
        "180140.965000",
        "180141.965000",
        "180142.965000",
        "180143.965000",
        "180144.965000",
        "180145.965000",
        "180146.965000",
        "180147.965000",
        "180148.965000",
        "180149.965000",
        "180150.965000",
        "180151.965000",
        "180152.965000",
        "180153.965000",
        "180154.965000",
        "180155.965000",
        "180156.965000",
        "180157.965000",
        "180158.965000",
        "180159.965000",
        "180200.965000",
        "180201.965000",
        "180202.965000",
        "180203.965000",
        "180204.965000",
        "180205.965000",
        "180206.965000",
        "180207.965000",
        "180208.965000",
        "180209.965000",
        "180210.965000",
        "180211.965000",
        "180212.965000",
        "180213.965000",
        "180214.965000",
        "180215.965000",
        "180216.965000",
        "180217.965000",
        "180218.965000",
        "180219.965000",
        "180220.965000",
        "180221.965000",
        "180222.965000",
        "180223.965000",
        "180224.965000",
        "180225.965000",
        "180226.965000",
        "180227.965000",
        "180228.965000",
        "180229.965000",
        "180230.965000",
        "180231.965000",
        "180232.965000",
        "180233.965000",
        "180234.965000",
        "180235.965000",
        "180236.965000",
        "180237.965000",
        "180238.965000",
        "180239.965000",
        "180240.965000",
        "180241.965000",
        "180242.965000",
        "180243.965000",
        "180244.965000",
        "180245.965000",
        "180246.965000",
        "180247.965000",
        "180248.965000",
        "180249.965000",
        "180250.965000",
        "180251.965000",
        "180252.965000",
        "180253.965000",
        "180254.965000",
        "180255.965000",
        "180256.965000",
        "180257.965000",
        "180258.965000",
        "180259.965000",
        "180300.965000",
        "180301.965000",
        "180302.965000",
        "180303.965000",
        "180304.965000",
        "180305.965000",
        "180306.965000",
        "180307.965000",
        "180308.965000",
        "180309.965000",
        "180310.965000",
        "180311.965000",
        "180312.965000",
        "180313.965000",
        "180314.965000",
        "180315.965000",
        "180316.965000",
        "180317.965000",
        "180318.965000",
        "180319.965000",
        "180320.965000",
        "180321.965000",
        "180322.965000",
        "180323.965000",
        "180324.965000",
        "180325.965000",
        "180326.965000",
        "180327.965000",
        "180328.965000",
        "180329.965000",
        "180330.965000",
        "180331.965000",
        "180332.965000",
        "180333.965000",
        "180334.965000",
        "180335.965000",
        "180336.965000",
        "180337.965000",
        "180338.965000",
        "180339.965000",
        "180340.965000",
        "180341.965000",
        "180342.965000",
        "180343.965000",
        "180344.965000",
        "180345.965000",
        "180346.965000",
        "180347.965000",
        "180348.965000",
        "180349.965000",
        "180350.965000"
      ],
      "ContentTime": [
        "175904.931000",
        "175905.785000",
        "175906.778000",
        "175907.756000",
        "175908.783000",
        "175909.774000",
        "175910.756000",
        "175911.766000",
        "175912.767000",
        "175913.787000",
        "175914.772000",
        "175915.767000",
        "175916.773000",
        "175917.787000",
        "175918.770000",
        "175919.782000",
        "175920.787000",
        "175921.803000",
        "175922.785000",
        "175923.830000",
        "175924.744000",
        "175925.767000",
        "175926.761000",
        "175927.763000",
        "175928.769000",
        "175929.790000",
        "175930.795000",
        "175931.764000",
        "175932.772000",
        "175933.776000",
        "175934.776000",
        "175935.787000",
        "175936.771000",
        "175937.775000",
        "175938.786000",
        "175939.734000",
        "175940.772000",
        "175941.790000",
        "175942.793000",
        "175943.739000",
        "175944.795000",
        "175945.800000",
        "175946.761000",
        "175947.757000",
        "175948.765000",
        "175949.786000",
        "175950.772000",
        "175951.798000",
        "175952.769000",
        "175953.772000",
        "175954.778000",
        "175955.785000",
        "175956.788000",
        "175957.769000",
        "175958.764000",
        "175959.798000",
        "180000.758000",
        "180001.771000",
        "180002.755000",
        "180003.775000",
        "180004.785000",
        "180005.763000",
        "180006.778000",
        "180007.769000",
        "180008.763000",
        "180009.791000",
        "180010.808000",
        "180011.793000",
        "180012.838000",
        "180013.756000",
        "180014.771000",
        "180015.802000",
        "180016.754000",
        "180017.764000",
        "180018.770000",
        "180019.755000",
        "180020.811000",
        "180021.762000",
        "180022.754000",
        "180023.727000",
        "180024.799000",
        "180025.778000",
        "180026.755000",
        "180027.768000",
        "180028.770000",
        "180029.766000",
        "180030.738000",
        "180031.768000",
        "180032.772000",
        "180033.775000",
        "180034.796000",
        "180035.777000",
        "180036.766000",
        "180037.755000",
        "180038.766000",
        "180039.761000",
        "180040.762000",
        "180041.755000",
        "180042.811000",
        "180043.778000",
        "180044.792000",
        "180045.773000",
        "180046.773000",
        "180047.781000",
        "180048.804000",
        "180049.776000",
        "180050.782000",
        "180051.840000",
        "180052.802000",
        "180053.783000",
        "180054.825000",
        "180055.847000",
        "180056.812000",
        "180057.768000",
        "180058.787000",
        "180059.736000",
        "180100.783000",
        "180101.784000",
        "180102.746000",
        "180103.782000",
        "180104.785000",
        "180105.743000",
        "180106.762000",
        "180107.777000",
        "180108.785000",
        "180109.786000",
        "180110.786000",
        "180111.774000",
        "180112.759000",
        "180113.821000",
        "180114.795000",
        "180115.762000",
        "180116.769000",
        "180117.757000",
        "180118.778000",
        "180119.858000",
        "180120.796000",
        "180121.782000",
        "180122.793000",
        "180123.760000",
        "180124.801000",
        "180125.772000",
        "180126.774000",
        "180127.789000",
        "180128.746000",
        "180129.753000",
        "180130.773000",
        "180131.778000",
        "180132.798000",
        "180133.806000",
        "180134.830000",
        "180135.875000",
        "180136.770000",
        "180137.799000",
        "180138.728000",
        "180139.787000",
        "180140.763000",
        "180141.784000",
        "180142.791000",
        "180143.788000",
        "180144.746000",
        "180145.753000",
        "180146.768000",
        "180147.769000",
        "180148.759000",
        "180149.779000",
        "180150.767000",
        "180151.767000",
        "180152.778000",
        "180153.768000",
        "180154.765000",
        "180155.782000",
        "180156.777000",
        "180157.760000",
        "180158.772000",
        "180159.758000",
        "180200.794000",
        "180201.793000",
        "180202.761000",
        "180203.815000",
        "180204.785000",
        "180205.770000",
        "180206.745000",
        "180207.775000",
        "180208.768000",
        "180209.778000",
        "180210.761000",
        "180211.747000",
        "180212.791000",
        "180213.794000",
        "180214.793000",
        "180215.778000",
        "180216.794000",
        "180217.778000",
        "180218.812000",
        "180219.815000",
        "180220.779000",
        "180221.818000",
        "180222.763000",
        "180223.819000",
        "180224.774000",
        "180225.760000",
        "180226.829000",
        "180227.826000",
        "180228.832000",
        "180229.776000",
        "180230.792000",
        "180231.753000",
        "180232.767000",
        "180233.761000",
        "180234.796000",
        "180235.830000",
        "180236.779000",
        "180237.794000",
        "180238.797000",
        "180239.789000",
        "180240.760000",
        "180241.799000",
        "180242.767000",
        "180243.782000",
        "180244.788000",
        "180245.810000",
        "180246.807000",
        "180247.766000",
        "180248.797000",
        "180249.768000",
        "180250.749000",
        "180251.771000",
        "180252.750000",
        "180253.756000",
        "180254.778000",
        "180255.761000",
        "180256.772000",
        "180257.775000",
        "180258.774000",
        "180259.791000",
        "180300.783000",
        "180301.817000",
        "180302.777000",
        "180303.770000",
        "180304.796000",
        "180305.800000",
        "180306.821000",
        "180307.792000",
        "180308.794000",
        "180309.820000",
        "180310.838000",
        "180311.777000",
        "180312.730000",
        "180313.789000",
        "180314.765000",
        "180315.811000",
        "180316.835000",
        "180317.773000",
        "180318.766000",
        "180319.803000",
        "180320.767000",
        "180321.769000",
        "180322.760000",
        "180323.781000",
        "180324.785000",
        "180325.760000",
        "180326.763000",
        "180327.777000",
        "180328.738000",
        "180329.770000",
        "180330.754000",
        "180331.771000",
        "180332.765000",
        "180333.759000",
        "180334.777000",
        "180335.779000",
        "180336.772000",
        "180337.780000",
        "180338.810000",
        "180339.812000",
        "180340.764000",
        "180341.756000",
        "180342.796000",
        "180343.755000",
        "180344.764000",
        "180345.787000",
        "180346.775000",
        "180347.765000",
        "180348.784000",
        "180349.761000",
        "180350.798000",
        "180351.857000"
      ],
      "InstanceCreationTime": [
        "175904.931000",
        "175905.785000",
        "175906.778000",
        "175907.756000",
        "175908.783000",
        "175909.774000",
        "175910.756000",
        "175911.766000",
        "175912.767000",
        "175913.787000",
        "175914.772000",
        "175915.767000",
        "175916.773000",
        "175917.787000",
        "175918.770000",
        "175919.782000",
        "175920.787000",
        "175921.803000",
        "175922.785000",
        "175923.830000",
        "175924.744000",
        "175925.767000",
        "175926.761000",
        "175927.763000",
        "175928.769000",
        "175929.790000",
        "175930.795000",
        "175931.764000",
        "175932.772000",
        "175933.776000",
        "175934.776000",
        "175935.787000",
        "175936.771000",
        "175937.775000",
        "175938.786000",
        "175939.734000",
        "175940.772000",
        "175941.790000",
        "175942.793000",
        "175943.739000",
        "175944.795000",
        "175945.800000",
        "175946.761000",
        "175947.757000",
        "175948.765000",
        "175949.786000",
        "175950.772000",
        "175951.798000",
        "175952.769000",
        "175953.772000",
        "175954.778000",
        "175955.785000",
        "175956.788000",
        "175957.769000",
        "175958.764000",
        "175959.798000",
        "180000.758000",
        "180001.771000",
        "180002.755000",
        "180003.775000",
        "180004.785000",
        "180005.763000",
        "180006.778000",
        "180007.769000",
        "180008.763000",
        "180009.791000",
        "180010.808000",
        "180011.793000",
        "180012.838000",
        "180013.756000",
        "180014.771000",
        "180015.802000",
        "180016.754000",
        "180017.764000",
        "180018.770000",
        "180019.755000",
        "180020.811000",
        "180021.762000",
        "180022.754000",
        "180023.727000",
        "180024.799000",
        "180025.778000",
        "180026.755000",
        "180027.768000",
        "180028.770000",
        "180029.766000",
        "180030.738000",
        "180031.768000",
        "180032.772000",
        "180033.775000",
        "180034.796000",
        "180035.777000",
        "180036.766000",
        "180037.755000",
        "180038.766000",
        "180039.761000",
        "180040.762000",
        "180041.755000",
        "180042.811000",
        "180043.778000",
        "180044.792000",
        "180045.773000",
        "180046.773000",
        "180047.781000",
        "180048.804000",
        "180049.776000",
        "180050.782000",
        "180051.840000",
        "180052.802000",
        "180053.783000",
        "180054.825000",
        "180055.847000",
        "180056.812000",
        "180057.768000",
        "180058.787000",
        "180059.736000",
        "180100.783000",
        "180101.784000",
        "180102.746000",
        "180103.782000",
        "180104.785000",
        "180105.743000",
        "180106.762000",
        "180107.777000",
        "180108.785000",
        "180109.786000",
        "180110.786000",
        "180111.774000",
        "180112.759000",
        "180113.821000",
        "180114.795000",
        "180115.762000",
        "180116.769000",
        "180117.757000",
        "180118.778000",
        "180119.858000",
        "180120.796000",
        "180121.782000",
        "180122.793000",
        "180123.760000",
        "180124.801000",
        "180125.772000",
        "180126.774000",
        "180127.789000",
        "180128.746000",
        "180129.753000",
        "180130.773000",
        "180131.778000",
        "180132.798000",
        "180133.806000",
        "180134.830000",
        "180135.875000",
        "180136.770000",
        "180137.799000",
        "180138.728000",
        "180139.787000",
        "180140.763000",
        "180141.784000",
        "180142.791000",
        "180143.788000",
        "180144.746000",
        "180145.753000",
        "180146.768000",
        "180147.769000",
        "180148.759000",
        "180149.779000",
        "180150.767000",
        "180151.767000",
        "180152.778000",
        "180153.768000",
        "180154.765000",
        "180155.782000",
        "180156.777000",
        "180157.760000",
        "180158.772000",
        "180159.758000",
        "180200.794000",
        "180201.793000",
        "180202.761000",
        "180203.815000",
        "180204.785000",
        "180205.770000",
        "180206.745000",
        "180207.775000",
        "180208.768000",
        "180209.778000",
        "180210.761000",
        "180211.747000",
        "180212.791000",
        "180213.794000",
        "180214.793000",
        "180215.778000",
        "180216.794000",
        "180217.778000",
        "180218.812000",
        "180219.815000",
        "180220.779000",
        "180221.818000",
        "180222.763000",
        "180223.819000",
        "180224.774000",
        "180225.760000",
        "180226.829000",
        "180227.826000",
        "180228.832000",
        "180229.776000",
        "180230.792000",
        "180231.753000",
        "180232.767000",
        "180233.761000",
        "180234.796000",
        "180235.830000",
        "180236.779000",
        "180237.794000",
        "180238.797000",
        "180239.789000",
        "180240.760000",
        "180241.799000",
        "180242.767000",
        "180243.782000",
        "180244.788000",
        "180245.810000",
        "180246.807000",
        "180247.766000",
        "180248.797000",
        "180249.768000",
        "180250.749000",
        "180251.771000",
        "180252.750000",
        "180253.756000",
        "180254.778000",
        "180255.761000",
        "180256.772000",
        "180257.775000",
        "180258.774000",
        "180259.791000",
        "180300.783000",
        "180301.817000",
        "180302.777000",
        "180303.770000",
        "180304.796000",
        "180305.800000",
        "180306.821000",
        "180307.792000",
        "180308.794000",
        "180309.820000",
        "180310.838000",
        "180311.777000",
        "180312.730000",
        "180313.789000",
        "180314.765000",
        "180315.811000",
        "180316.835000",
        "180317.773000",
        "180318.766000",
        "180319.803000",
        "180320.767000",
        "180321.769000",
        "180322.760000",
        "180323.781000",
        "180324.785000",
        "180325.760000",
        "180326.763000",
        "180327.777000",
        "180328.738000",
        "180329.770000",
        "180330.754000",
        "180331.771000",
        "180332.765000",
        "180333.759000",
        "180334.777000",
        "180335.779000",
        "180336.772000",
        "180337.780000",
        "180338.810000",
        "180339.812000",
        "180340.764000",
        "180341.756000",
        "180342.796000",
        "180343.755000",
        "180344.764000",
        "180345.787000",
        "180346.775000",
        "180347.765000",
        "180348.784000",
        "180349.761000",
        "180350.798000",
        "180351.857000"
      ],
      "InstanceNumber": [
        1,
        2,
        3,
        4,
        5,
        6,
        7,
        8,
        9,
        10,
        11,
        12,
        13,
        14,
        15,
        16,
        17,
        18,
        19,
        20,
        21,
        22,
        23,
        24,
        25,
        26,
        27,
        28,
        29,
        30,
        31,
        32,
        33,
        34,
        35,
        36,
        37,
        38,
        39,
        40,
        41,
        42,
        43,
        44,
        45,
        46,
        47,
        48,
        49,
        50,
        51,
        52,
        53,
        54,
        55,
        56,
        57,
        58,
        59,
        60,
        61,
        62,
        63,
        64,
        65,
        66,
        67,
        68,
        69,
        70,
        71,
        72,
        73,
        74,
        75,
        76,
        77,
        78,
        79,
        80,
        81,
        82,
        83,
        84,
        85,
        86,
        87,
        88,
        89,
        90,
        91,
        92,
        93,
        94,
        95,
        96,
        97,
        98,
        99,
        100,
        101,
        102,
        103,
        104,
        105,
        106,
        107,
        108,
        109,
        110,
        111,
        112,
        113,
        114,
        115,
        116,
        117,
        118,
        119,
        120,
        121,
        122,
        123,
        124,
        125,
        126,
        127,
        128,
        129,
        130,
        131,
        132,
        133,
        134,
        135,
        136,
        137,
        138,
        139,
        140,
        141,
        142,
        143,
        144,
        145,
        146,
        147,
        148,
        149,
        150,
        151,
        152,
        153,
        154,
        155,
        156,
        157,
        158,
        159,
        160,
        161,
        162,
        163,
        164,
        165,
        166,
        167,
        168,
        169,
        170,
        171,
        172,
        173,
        174,
        175,
        176,
        177,
        178,
        179,
        180,
        181,
        182,
        183,
        184,
        185,
        186,
        187,
        188,
        189,
        190,
        191,
        192,
        193,
        194,
        195,
        196,
