{
  "AcquisitionMatrixPE": 96,
  "AcquisitionNumber": 1,
  "BandwidthPerPixelPhaseEncode": 18.939,
  "BaseResolution": 96,
  "BodyPartExamined": "BRAIN",
  "ConsistencyInfo": "N4_VE11C_LATEST_20160120",
  "ConversionSoftware": "dcm2niix",
  "ConversionSoftwareVersion": "v1.0.20171215 (OpenJPEG build) GCC6.3.0",
  "DerivedVendorReportedEchoSpacing": 0.000550011,
  "DeviceSerialNumber": "66112",
  "DwellTime": 2.2e-06,
  "EchoTime": 0.033,
  "EchoTrainLength": 96,
  "EffectiveEchoSpacing": 0.000550011,
  "FlipAngle": 59,
  "ImageOrientationPatientDICOM": [
    0.998759,
    0.0444654,
    0.0224395,
    -0.0450041,
    0.998696,
    0.0240982
  ],
  "ImageType": [
    "ORIGINAL",
    "PRIMARY",
    "FMRI",
    "NONE",
    "ND",
    "NORM",
    "MOSAIC"
  ],
  "InPlanePhaseEncodingDirectionDICOM": "COL",
  "InstitutionAddress": "Maynard_3_Hanover_NH_US_03755",
  "InstitutionName": "Dartmouth_College_-_PBS",
  "InstitutionalDepartmentName": "Department",
  "MRAcquisitionType": "2D",
  "MagneticFieldStrength": 3,
  "Manufacturer": "Siemens",
  "ManufacturersModelName": "Prisma",
  "Modality": "MR",
  "MultibandAccelerationFactor": 4,
  "PatientPosition": "HFS",
  "PercentPhaseFOV": 100,
  "PhaseEncodingDirection": "j-",
  "PhaseEncodingSteps": 96,
  "PhaseResolution": 1,
  "PixelBandwidth": 2365,
  "ProcedureStepDescription": "Gobbini_Matteo_1038_hyperface",
  "ProtocolName": "func_run-03_task-visualmemory",
  "PulseSequenceDetails": "%SiemensSeq%_ep2d_bold",
  "ReceiveCoilActiveElements": "HEA;HEP",
  "ReceiveCoilName": "Head_32",
  "ReconMatrixPE": 96,
  "RepetitionTime": 1,
  "SAR": 0.0453759,
  "ScanOptions": "FS",
  "ScanningSequence": "EP",
  "SequenceName": "_epfid2d1_96",
  "SequenceVariant": "SK",
  "SeriesDescription": "func_run-03_task-visualmemory",
  "SeriesNumber": 21,
  "ShimSetting": [
    4140,
    -7714,
    -7318,
    639,
    -33,
    29,
    3,
    59
  ],
  "SliceThickness": 2.5,
  "SliceTiming": [
    0.735,
    0,
    0.49,
    0.08,
    0.57,
    0.1625,
    0.6525,
    0.325,
    0.815,
    0.4075,
    0.8975,
    0.245,
    0.735,
    0,
    0.49,
    0.08,
    0.57,
    0.1625,
    0.6525,
    0.325,
    0.815,
    0.4075,
    0.8975,
    0.245,
    0.735,
    0,
    0.49,
    0.08,
    0.57,
    0.1625,
    0.6525,
    0.325,
    0.815,
    0.4075,
    0.8975,
    0.245,
    0.735,
    0,
    0.49,
    0.08,
    0.57,
    0.1625,
    0.6525,
    0.325,
    0.815,
    0.4075,
    0.8975,
    0.245
  ],
  "SoftwareVersions": "syngo_MR_E11",
  "SpacingBetweenSlices": 2.5,
  "StationName": "AWP66112",
  "TotalReadoutTime": 0.0522511,
  "TxRefAmp": 224.91,
  "time": {
    "samples": {
      "AcquisitionNumber": [
        1,
        2,
        3,
        4,
        5,
        6,
        7,
        8,
        9,
        10,
        11,
        12,
        13,
        14,
        15,
        16,
        17,
        18,
        19,
        20,
        21,
        22,
        23,
        24,
        25,
        26,
        27,
        28,
        29,
        30,
        31,
        32,
        33,
        34,
        35,
        36,
        37,
        38,
        39,
        40,
        41,
        42,
        43,
        44,
        45,
        46,
        47,
        48,
        49,
        50,
        51,
        52,
        53,
        54,
        55,
        56,
        57,
        58,
        59,
        60,
        61,
        62,
        63,
        64,
        65,
        66,
        67,
        68,
        69,
        70,
        71,
        72,
        73,
        74,
        75,
        76,
        77,
        78,
        79,
        80,
        81,
        82,
        83,
        84,
        85,
        86,
        87,
        88,
        89,
        90,
        91,
        92,
        93,
        94,
        95,
        96,
        97,
        98,
        99,
        100,
        101,
        102,
        103,
        104,
        105,
        106,
        107,
        108,
        109,
        110,
        111,
        112,
        113,
        114,
        115,
        116,
        117,
        118,
        119,
        120,
        121,
        122,
        123,
        124,
        125,
        126,
        127,
        128,
        129,
        130,
        131,
        132,
        133,
        134,
        135,
        136,
        137,
        138,
        139,
        140,
        141,
        142,
        143,
        144,
        145,
        146,
        147,
        148,
        149,
        150,
        151,
        152,
        153,
        154,
        155,
        156,
        157,
        158,
        159,
        160,
        161,
        162,
        163,
        164,
        165,
        166,
        167,
        168,
        169,
        170,
        171,
        172,
        173,
        174,
        175,
        176,
        177,
        178,
        179,
        180,
        181,
        182,
        183,
        184,
        185,
        186,
        187,
        188,
        189,
        190,
        191,
        192,
        193,
        194,
        195,
        196,
        197,
        198,
        199,
        200,
        201,
        202,
        203,
        204,
        205,
        206,
        207,
        208,
        209,
        210,
        211,
        212,
        213,
        214,
        215,
        216,
        217,
        218,
        219,
        220,
        221,
        222,
        223,
        224,
        225,
        226,
        227,
        228,
        229,
        230,
        231,
        232,
        233,
        234,
        235,
        236,
        237,
        238,
        239,
        240,
        241,
        242,
        243,
        244,
        245,
        246,
        247,
        248,
        249,
        250,
        251,
        252,
        253,
        254,
        255,
        256,
        257,
        258,
        259,
        260,
        261,
        262,
        263,
        264,
        265,
        266,
        267,
        268,
        269,
        270,
        271,
        272,
        273,
        274,
        275,
        276,
        277,
        278,
        279,
        280,
        281,
        282,
        283,
        284,
        285,
        286,
        287,
        288
      ],
      "AcquisitionTime": [
        "173035.635000",
        "173036.635000",
        "173037.635000",
        "173038.635000",
        "173039.635000",
        "173040.635000",
        "173041.635000",
        "173042.635000",
        "173043.635000",
        "173044.635000",
        "173045.635000",
        "173046.635000",
        "173047.635000",
        "173048.635000",
        "173049.635000",
        "173050.635000",
        "173051.635000",
        "173052.635000",
        "173053.635000",
        "173054.635000",
        "173055.635000",
        "173056.635000",
        "173057.635000",
        "173058.635000",
        "173059.635000",
        "173100.635000",
        "173101.635000",
        "173102.635000",
        "173103.635000",
        "173104.635000",
        "173105.635000",
        "173106.635000",
        "173107.635000",
        "173108.635000",
        "173109.635000",
        "173110.635000",
        "173111.635000",
        "173112.635000",
        "173113.635000",
        "173114.635000",
        "173115.635000",
        "173116.635000",
        "173117.635000",
        "173118.635000",
        "173119.635000",
        "173120.635000",
        "173121.635000",
        "173122.635000",
        "173123.635000",
        "173124.635000",
        "173125.635000",
        "173126.635000",
        "173127.635000",
        "173128.635000",
        "173129.635000",
        "173130.635000",
        "173131.635000",
        "173132.635000",
        "173133.635000",
        "173134.635000",
        "173135.635000",
        "173136.635000",
        "173137.635000",
        "173138.635000",
        "173139.635000",
        "173140.635000",
        "173141.635000",
        "173142.635000",
        "173143.635000",
        "173144.635000",
        "173145.635000",
        "173146.635000",
        "173147.635000",
        "173148.635000",
        "173149.635000",
        "173150.635000",
        "173151.635000",
        "173152.635000",
        "173153.635000",
        "173154.635000",
        "173155.635000",
        "173156.635000",
        "173157.635000",
        "173158.635000",
        "173159.635000",
        "173200.635000",
        "173201.635000",
        "173202.635000",
        "173203.635000",
        "173204.635000",
        "173205.635000",
        "173206.635000",
        "173207.635000",
        "173208.635000",
        "173209.635000",
        "173210.635000",
        "173211.635000",
        "173212.635000",
        "173213.635000",
        "173214.635000",
        "173215.635000",
        "173216.635000",
        "173217.635000",
        "173218.635000",
        "173219.635000",
        "173220.635000",
        "173221.635000",
        "173222.635000",
        "173223.635000",
        "173224.635000",
        "173225.635000",
        "173226.635000",
        "173227.635000",
        "173228.635000",
        "173229.635000",
        "173230.635000",
        "173231.635000",
        "173232.635000",
        "173233.635000",
        "173234.635000",
        "173235.635000",
        "173236.635000",
        "173237.635000",
        "173238.635000",
        "173239.635000",
        "173240.635000",
        "173241.635000",
        "173242.635000",
        "173243.635000",
        "173244.635000",
        "173245.635000",
        "173246.635000",
        "173247.635000",
        "173248.635000",
        "173249.635000",
        "173250.635000",
        "173251.635000",
        "173252.635000",
        "173253.635000",
        "173254.635000",
        "173255.635000",
        "173256.635000",
        "173257.635000",
        "173258.635000",
        "173259.635000",
        "173300.635000",
        "173301.635000",
        "173302.635000",
        "173303.635000",
        "173304.635000",
        "173305.635000",
        "173306.635000",
        "173307.635000",
        "173308.635000",
        "173309.635000",
        "173310.635000",
        "173311.635000",
        "173312.635000",
        "173313.635000",
        "173314.635000",
        "173315.635000",
        "173316.635000",
        "173317.635000",
        "173318.635000",
        "173319.635000",
        "173320.635000",
        "173321.635000",
        "173322.635000",
        "173323.635000",
        "173324.635000",
        "173325.635000",
        "173326.635000",
        "173327.635000",
        "173328.635000",
        "173329.635000",
        "173330.635000",
        "173331.635000",
        "173332.635000",
        "173333.635000",
        "173334.635000",
        "173335.635000",
        "173336.635000",
        "173337.635000",
        "173338.635000",
        "173339.635000",
        "173340.635000",
        "173341.635000",
        "173342.635000",
        "173343.635000",
        "173344.635000",
        "173345.635000",
        "173346.635000",
        "173347.635000",
        "173348.635000",
        "173349.635000",
        "173350.635000",
        "173351.635000",
        "173352.635000",
        "173353.635000",
        "173354.635000",
        "173355.635000",
        "173356.635000",
        "173357.635000",
        "173358.635000",
        "173359.635000",
        "173400.635000",
        "173401.635000",
        "173402.635000",
        "173403.635000",
        "173404.635000",
        "173405.635000",
        "173406.635000",
        "173407.635000",
        "173408.635000",
        "173409.635000",
        "173410.635000",
        "173411.635000",
        "173412.635000",
        "173413.635000",
        "173414.635000",
        "173415.635000",
        "173416.635000",
        "173417.635000",
        "173418.635000",
        "173419.635000",
        "173420.635000",
        "173421.635000",
        "173422.635000",
        "173423.635000",
        "173424.635000",
        "173425.635000",
        "173426.635000",
        "173427.635000",
        "173428.635000",
        "173429.635000",
        "173430.635000",
        "173431.635000",
        "173432.635000",
        "173433.635000",
        "173434.635000",
        "173435.635000",
        "173436.635000",
        "173437.635000",
        "173438.635000",
        "173439.635000",
        "173440.635000",
        "173441.635000",
        "173442.635000",
        "173443.635000",
        "173444.635000",
        "173445.635000",
        "173446.635000",
        "173447.635000",
        "173448.635000",
        "173449.635000",
        "173450.635000",
        "173451.635000",
        "173452.635000",
        "173453.635000",
        "173454.635000",
        "173455.635000",
        "173456.635000",
        "173457.635000",
        "173458.635000",
        "173459.635000",
        "173500.635000",
        "173501.635000",
        "173502.635000",
        "173503.635000",
        "173504.635000",
        "173505.635000",
        "173506.635000",
        "173507.635000",
        "173508.635000",
        "173509.635000",
        "173510.635000",
        "173511.635000",
        "173512.635000",
        "173513.635000",
        "173514.635000",
        "173515.635000",
        "173516.635000",
        "173517.635000",
        "173518.635000",
        "173519.635000",
        "173520.635000",
        "173521.635000",
        "173522.635000"
      ],
      "ContentTime": [
        "173036.513000",
        "173037.376000",
        "173038.342000",
        "173039.354000",
        "173040.354000",
        "173041.347000",
        "173042.359000",
        "173043.340000",
        "173044.370000",
        "173045.355000",
        "173046.339000",
        "173047.367000",
        "173048.357000",
        "173049.376000",
        "173050.343000",
        "173051.359000",
        "173052.357000",
        "173053.347000",
        "173054.356000",
        "173055.353000",
        "173056.359000",
        "173057.387000",
        "173058.335000",
        "173059.372000",
        "173100.353000",
        "173101.354000",
        "173102.362000",
        "173103.342000",
        "173104.330000",
        "173105.341000",
        "173106.344000",
        "173107.346000",
        "173108.348000",
        "173109.382000",
        "173110.359000",
        "173111.328000",
        "173112.340000",
        "173113.351000",
        "173114.338000",
        "173115.352000",
        "173116.343000",
        "173117.350000",
        "173118.340000",
        "173119.339000",
        "173120.393000",
        "173121.357000",
        "173122.341000",
        "173123.339000",
        "173124.342000",
        "173125.353000",
        "173126.367000",
        "173127.407000",
        "173128.341000",
        "173129.345000",
        "173130.351000",
        "173131.360000",
        "173132.366000",
        "173133.360000",
        "173134.339000",
        "173135.339000",
        "173136.334000",
        "173137.361000",
        "173138.345000",
        "173139.349000",
        "173140.335000",
        "173141.394000",
        "173142.344000",
        "173143.361000",
        "173144.343000",
        "173145.350000",
        "173146.330000",
        "173147.315000",
        "173148.348000",
        "173149.362000",
        "173150.342000",
        "173151.370000",
        "173152.418000",
        "173153.356000",
        "173154.350000",
        "173155.351000",
        "173156.355000",
        "173157.342000",
        "173158.346000",
        "173159.340000",
        "173200.331000",
        "173201.350000",
        "173202.370000",
        "173203.412000",
        "173204.386000",
        "173205.382000",
        "173206.369000",
        "173207.345000",
        "173208.348000",
        "173209.372000",
        "173210.370000",
        "173211.352000",
        "173212.360000",
        "173213.335000",
        "173214.358000",
        "173215.406000",
        "173216.364000",
        "173217.351000",
        "173218.354000",
        "173219.349000",
        "173220.343000",
        "173221.348000",
        "173222.366000",
        "173223.369000",
        "173224.363000",
        "173225.344000",
        "173226.360000",
        "173227.355000",
        "173228.361000",
        "173229.335000",
        "173230.358000",
        "173231.353000",
        "173232.372000",
        "173233.352000",
        "173234.333000",
        "173235.352000",
        "173236.358000",
        "173237.375000",
        "173238.375000",
        "173239.355000",
        "173240.387000",
        "173241.365000",
        "173242.352000",
        "173243.351000",
        "173244.341000",
        "173245.358000",
        "173246.337000",
        "173247.371000",
        "173248.366000",
        "173249.377000",
        "173250.342000",
        "173251.369000",
        "173252.338000",
        "173253.368000",
        "173254.362000",
        "173255.350000",
        "173256.346000",
        "173257.343000",
        "173258.351000",
        "173259.349000",
        "173300.361000",
        "173301.359000",
        "173302.378000",
        "173303.367000",
        "173304.367000",
        "173305.354000",
        "173306.362000",
        "173307.355000",
        "173308.354000",
        "173309.357000",
        "173310.344000",
        "173311.393000",
        "173312.337000",
        "173313.368000",
        "173314.354000",
        "173315.355000",
        "173316.348000",
        "173317.365000",
        "173318.345000",
        "173319.360000",
        "173320.349000",
        "173321.390000",
        "173322.368000",
        "173323.359000",
        "173324.365000",
        "173325.390000",
        "173326.359000",
        "173327.363000",
        "173328.389000",
        "173329.379000",
        "173330.347000",
        "173331.344000",
        "173332.357000",
        "173333.376000",
        "173334.385000",
        "173335.402000",
        "173336.343000",
        "173337.371000",
        "173338.391000",
        "173339.385000",
        "173340.358000",
        "173341.360000",
        "173342.396000",
        "173343.386000",
        "173344.362000",
        "173345.347000",
        "173346.355000",
        "173347.360000",
        "173348.362000",
        "173349.370000",
        "173350.364000",
        "173351.375000",
        "173352.374000",
        "173353.352000",
        "173354.362000",
        "173355.331000",
        "173356.318000",
        "173357.351000",
        "173358.378000",
        "173359.396000",
        "173400.346000",
        "173401.353000",
        "173402.371000",
        "173403.332000",
        "173404.373000",
        "173405.333000",
        "173406.369000",
        "173407.366000",
        "173408.353000",
        "173409.316000",
        "173410.351000",
        "173411.361000",
        "173412.360000",
        "173413.319000",
        "173414.342000",
        "173415.362000",
        "173416.344000",
        "173417.364000",
        "173418.341000",
        "173419.338000",
        "173420.341000",
        "173421.342000",
        "173422.376000",
        "173423.377000",
        "173424.348000",
        "173425.349000",
        "173426.363000",
        "173427.346000",
        "173428.337000",
        "173429.363000",
        "173430.360000",
        "173431.358000",
        "173432.344000",
        "173433.324000",
        "173434.344000",
        "173435.344000",
        "173436.382000",
        "173437.339000",
        "173438.400000",
        "173439.357000",
        "173440.365000",
        "173441.355000",
        "173442.350000",
        "173443.377000",
        "173444.392000",
        "173445.340000",
        "173446.363000",
        "173447.369000",
        "173448.354000",
        "173449.353000",
        "173450.378000",
        "173451.349000",
        "173452.374000",
        "173453.346000",
        "173454.344000",
        "173455.378000",
        "173456.342000",
        "173457.363000",
        "173458.351000",
        "173459.387000",
        "173500.368000",
        "173501.347000",
        "173502.356000",
        "173503.348000",
        "173504.343000",
        "173505.355000",
        "173506.378000",
        "173507.330000",
        "173508.371000",
        "173509.353000",
        "173510.366000",
        "173511.357000",
        "173512.333000",
        "173513.339000",
        "173514.365000",
        "173515.361000",
        "173516.359000",
        "173517.356000",
        "173518.360000",
        "173519.347000",
        "173520.368000",
        "173521.358000",
        "173522.364000",
        "173523.386000"
      ],
      "InstanceCreationTime": [
        "173036.513000",
        "173037.376000",
        "173038.342000",
        "173039.354000",
        "173040.354000",
        "173041.347000",
        "173042.359000",
        "173043.340000",
        "173044.370000",
        "173045.355000",
        "173046.339000",
        "173047.367000",
        "173048.357000",
        "173049.376000",
        "173050.343000",
        "173051.359000",
        "173052.357000",
        "173053.347000",
        "173054.356000",
        "173055.353000",
        "173056.359000",
        "173057.387000",
        "173058.335000",
        "173059.372000",
        "173100.353000",
        "173101.354000",
        "173102.362000",
        "173103.342000",
        "173104.330000",
        "173105.341000",
        "173106.344000",
        "173107.346000",
        "173108.348000",
        "173109.382000",
        "173110.359000",
        "173111.328000",
        "173112.340000",
        "173113.351000",
        "173114.338000",
        "173115.352000",
        "173116.343000",
        "173117.350000",
        "173118.340000",
        "173119.339000",
        "173120.393000",
        "173121.357000",
        "173122.341000",
        "173123.339000",
        "173124.342000",
        "173125.353000",
        "173126.367000",
        "173127.407000",
        "173128.341000",
        "173129.345000",
        "173130.351000",
        "173131.360000",
        "173132.366000",
        "173133.360000",
        "173134.339000",
        "173135.339000",
        "173136.334000",
        "173137.361000",
        "173138.345000",
        "173139.349000",
        "173140.335000",
        "173141.394000",
        "173142.344000",
        "173143.361000",
        "173144.343000",
        "173145.350000",
        "173146.330000",
        "173147.315000",
        "173148.348000",
        "173149.362000",
        "173150.342000",
        "173151.370000",
        "173152.418000",
        "173153.356000",
        "173154.350000",
        "173155.351000",
        "173156.355000",
        "173157.342000",
        "173158.346000",
        "173159.340000",
        "173200.331000",
        "173201.350000",
        "173202.370000",
        "173203.412000",
        "173204.386000",
        "173205.382000",
        "173206.369000",
        "173207.345000",
        "173208.348000",
        "173209.372000",
        "173210.370000",
        "173211.352000",
        "173212.360000",
        "173213.335000",
        "173214.358000",
        "173215.406000",
        "173216.364000",
        "173217.351000",
        "173218.354000",
        "173219.349000",
        "173220.343000",
        "173221.348000",
        "173222.366000",
        "173223.369000",
        "173224.363000",
        "173225.344000",
        "173226.360000",
        "173227.355000",
        "173228.361000",
        "173229.335000",
        "173230.358000",
        "173231.353000",
        "173232.372000",
        "173233.352000",
        "173234.333000",
        "173235.352000",
        "173236.358000",
        "173237.375000",
        "173238.375000",
        "173239.355000",
        "173240.387000",
        "173241.365000",
        "173242.352000",
        "173243.351000",
        "173244.341000",
        "173245.358000",
        "173246.337000",
        "173247.371000",
        "173248.366000",
        "173249.377000",
        "173250.342000",
        "173251.369000",
        "173252.338000",
        "173253.368000",
        "173254.362000",
        "173255.350000",
        "173256.346000",
        "173257.343000",
        "173258.351000",
        "173259.349000",
        "173300.361000",
        "173301.359000",
        "173302.378000",
        "173303.367000",
        "173304.367000",
        "173305.354000",
        "173306.362000",
        "173307.355000",
        "173308.354000",
        "173309.357000",
        "173310.344000",
        "173311.393000",
        "173312.337000",
        "173313.368000",
        "173314.354000",
        "173315.355000",
        "173316.348000",
        "173317.365000",
        "173318.345000",
        "173319.360000",
        "173320.349000",
        "173321.390000",
        "173322.368000",
        "173323.359000",
        "173324.365000",
        "173325.390000",
        "173326.359000",
        "173327.363000",
        "173328.389000",
        "173329.379000",
        "173330.347000",
        "173331.344000",
        "173332.357000",
        "173333.376000",
        "173334.385000",
        "173335.402000",
        "173336.343000",
        "173337.371000",
        "173338.391000",
        "173339.385000",
        "173340.358000",
        "173341.360000",
        "173342.396000",
        "173343.386000",
        "173344.362000",
        "173345.347000",
        "173346.355000",
        "173347.360000",
        "173348.362000",
        "173349.370000",
        "173350.364000",
        "173351.375000",
        "173352.374000",
        "173353.352000",
        "173354.362000",
        "173355.331000",
        "173356.318000",
        "173357.351000",
        "173358.378000",
        "173359.396000",
        "173400.346000",
        "173401.353000",
        "173402.371000",
        "173403.332000",
        "173404.373000",
        "173405.333000",
        "173406.369000",
        "173407.366000",
        "173408.353000",
        "173409.316000",
        "173410.351000",
        "173411.361000",
        "173412.360000",
        "173413.319000",
        "173414.342000",
        "173415.362000",
        "173416.344000",
        "173417.364000",
        "173418.341000",
        "173419.338000",
        "173420.341000",
        "173421.342000",
        "173422.376000",
        "173423.377000",
        "173424.348000",
        "173425.349000",
        "173426.363000",
        "173427.346000",
        "173428.337000",
        "173429.363000",
        "173430.360000",
        "173431.358000",
        "173432.344000",
        "173433.324000",
        "173434.344000",
        "173435.344000",
        "173436.382000",
        "173437.339000",
        "173438.400000",
        "173439.357000",
        "173440.365000",
        "173441.355000",
        "173442.350000",
        "173443.377000",
        "173444.392000",
        "173445.340000",
        "173446.363000",
        "173447.369000",
        "173448.354000",
        "173449.353000",
        "173450.378000",
        "173451.349000",
        "173452.374000",
        "173453.346000",
        "173454.344000",
        "173455.378000",
        "173456.342000",
        "173457.363000",
        "173458.351000",
        "173459.387000",
        "173500.368000",
        "173501.347000",
        "173502.356000",
        "173503.348000",
        "173504.343000",
        "173505.355000",
        "173506.378000",
        "173507.330000",
        "173508.371000",
        "173509.353000",
        "173510.366000",
        "173511.357000",
        "173512.333000",
        "173513.339000",
        "173514.365000",
        "173515.361000",
        "173516.359000",
        "173517.356000",
        "173518.360000",
        "173519.347000",
        "173520.368000",
        "173521.358000",
        "173522.364000",
        "173523.386000"
      ],
      "InstanceNumber": [
        1,
        2,
        3,
        4,
        5,
        6,
        7,
        8,
        9,
        10,
        11,
        12,
        13,
        14,
        15,
        16,
        17,
        18,
        19,
        20,
        21,
        22,
        23,
        24,
        25,
        26,
        27,
        28,
        29,
        30,
        31,
        32,
        33,
        34,
        35,
        36,
        37,
        38,
        39,
        40,
        41,
        42,
        43,
        44,
        45,
        46,
        47,
        48,
        49,
        50,
        51,
        52,
        53,
        54,
        55,
        56,
        57,
        58,
        59,
        60,
        61,
        62,
        63,
        64,
        65,
        66,
        67,
        68,
        69,
        70,
        71,
        72,
        73,
        74,
        75,
        76,
        77,
        78,
        79,
        80,
        81,
        82,
        83,
        84,
        85,
        86,
        87,
        88,
        89,
        90,
        91,
        92,
        93,
        94,
        95,
        96,
        97,
        98,
        99,
        100,
        101,
        102,
        103,
        104,
        105,
        106,
        107,
        108,
        109,
        110,
        111,
        112,
        113,
        114,
        115,
        116,
        117,
        118,
        119,
        120,
        121,
        122,
        123,
        124,
        125,
        126,
        127,
        128,
        129,
        130,
        131,
        132,
        133,
        134,
        135,
        136,
        137,
        138,
        139,
        140,
        141,
        142,
        143,
        144,
        145,
        146,
        147,
        148,
        149,
        150,
        151,
        152,
        153,
        154,
        155,
        156,
        157,
