{
  "AcquisitionMatrixPE": 96,
  "AcquisitionNumber": 1,
  "AcquisitionTime": "13:22:25.165000",
  "BandwidthPerPixelPhaseEncode": 18.939,
  "BaseResolution": 96,
  "BodyPartExamined": "BRAIN",
  "ConsistencyInfo": "N4_VE11C_LATEST_20160120",
  "ConversionSoftware": "dcm2niix",
  "ConversionSoftwareVersion": "v1.0.20170923 (OpenJPEG build) GCC6.3.0",
  "DerivedVendorReportedEchoSpacing": 0.000550011,
  "DeviceSerialNumber": "66112",
  "DwellTime": 2.2e-06,
  "EchoTime": 0.033,
  "EchoTrainLength": 96,
  "EffectiveEchoSpacing": 0.000550011,
  "FlipAngle": 59,
  "ImageType": [
    "ORIGINAL",
    "PRIMARY",
    "FMRI",
    "NONE",
    "ND",
    "NORM",
    "MOSAIC"
  ],
  "InstitutionAddress": "Maynard_3_Hanover_NH_US_03755",
  "InstitutionName": "Dartmouth_College_-_PBS",
  "MagneticFieldStrength": 3,
  "Manufacturer": "Siemens",
  "ManufacturersModelName": "Prisma",
  "Modality": "MR",
  "MultibandAccelerationFactor": 4,
  "PercentPhaseFOV": 100,
  "PhaseEncodingDirection": "j-",
  "PhaseEncodingSteps": 96,
  "PhaseResolution": 1,
  "ProcedureStepDescription": "Gobbini_Matteo_1038_hyperface",
  "ProtocolName": "func_run-02_task-visualmemory",
  "PulseSequenceDetails": "%SiemensSeq%_ep2d_bold",
  "ReceiveCoilActiveElements": "HEA;HEP",
  "ReceiveCoilName": "Head_32",
  "ReconMatrixPE": 96,
  "RepetitionTime": 1,
  "ScanOptions": "FS",
  "ScanningSequence": "EP",
  "SequenceName": "_epfid2d1_96",
  "SequenceVariant": "SK",
  "SeriesDescription": "func_run-02_task-visualmemory",
  "SliceTiming": [
    0.735,
    0,
    0.49,
    0.08,
    0.57,
    0.1625,
    0.6525,
    0.325,
    0.815,
    0.4075,
    0.8975,
    0.245,
    0.735,
    0,
    0.49,
    0.08,
    0.57,
    0.1625,
    0.6525,
    0.325,
    0.815,
    0.4075,
    0.8975,
    0.245,
    0.735,
    0,
    0.49,
    0.08,
    0.57,
    0.1625,
    0.6525,
    0.325,
    0.815,
    0.4075,
    0.8975,
    0.245,
    0.735,
    0,
    0.49,
    0.08,
    0.57,
    0.1625,
    0.6525,
    0.325,
    0.815,
    0.4075,
    0.8975,
    0.245
  ],
  "SoftwareVersions": "syngo_MR_E11",
  "StationName": "AWP66112",
  "TotalReadoutTime": 0.0522511,
  "dcmmeta_affine": [
    [
      -2.4993081092834473,
      -0.0488617904484272,
      0.03273340314626694,
      127.24546813964844
    ],
    [
      -0.04900839179754257,
      2.4994957447052,
      -0.010913345962762833,
      -105.73026275634766
    ],
    [
      0.03251350298523903,
      0.011552009731531143,
      2.4997620582580566,
      -70.54023742675781
    ],
    [
      0.0,
      0.0,
      0.0,
      1.0
    ]
  ],
  "dcmmeta_reorient_transform": [
    [
      0.0,
      -1.0,
      0.0,
      95.0
    ],
    [
      1.0,
      0.0,
      0.0,
      0.0
    ],
    [
      0.0,
      0.0,
      1.0,
      0.0
    ],
    [
      0.0,
      0.0,
      0.0,
      1.0
    ]
  ],
  "dcmmeta_shape": [
    96,
    96,
    48,
    288
  ],
  "dcmmeta_slice_dim": 2,
  "dcmmeta_version": 0.6,
  "global": {
    "const": {
      "AccessionNumber": "A001140",
      "AcquisitionMatrix": [
        96,
        0,
        0,
        96
      ],
      "AngioFlag": "N",
      "BitsAllocated": 16,
      "BitsStored": 12,
      "BodyPartExamined": "BRAIN",
      "Columns": 672,
      "EchoNumbers": 1,
      "EchoTime": 33.0,
      "EchoTrainLength": 96,
      "FlipAngle": 59.0,
      "HighBit": 11,
      "ImageOrientationPatient": [
        0.99972324567735,
        0.01960335709741,
        0.0130054005267,
        -0.0195447168917,
        0.99979830576583,
        -0.0046208039778
      ],
      "ImagePositionPatient": [
        -828.33213857646,
        -865.69103446228,
        -75.47970660893
      ],
      "ImageType": [
        "ORIGINAL",
        "PRIMARY",
        "FMRI",
        "NONE",
        "ND",
        "NORM",
        "MOSAIC"
      ],
      "ImagedNucleus": "1H",
      "ImagingFrequency": 123.252261,
      "InPlanePhaseEncodingDirection": "COL",
      "MRAcquisitionType": "2D",
      "MagneticFieldStrength": 3.0,
      "Manufacturer": "SIEMENS",
      "ManufacturerModelName": "Prisma",
      "Modality": "MR",
      "NumberOfAverages": 1.0,
      "NumberOfPhaseEncodingSteps": 96,
      "PercentPhaseFieldOfView": 100.0,
      "PercentSampling": 100.0,
      "PerformedProcedureStepStartTime": "125856.985000",
      "PhotometricInterpretation": "MONOCHROME2",
      "PixelBandwidth": 2365.0,
      "PixelRepresentation": 0,
      "PixelSpacing": [
        2.5,
        2.5
      ],
      "PositionReferenceIndicator": "",
      "ProtocolName": "func_run-02_task-visualmemory",
      "RepetitionTime": 1000.0,
      "Rows": 672,
      "SAR": 0.07162535388037,
      "SamplesPerPixel": 1,
      "ScanOptions": "FS",
      "ScanningSequence": "EP",
      "SequenceName": "*epfid2d1_96",
      "SequenceVariant": "SK",
      "SeriesDescription": "func_run-02_task-visualmemory",
      "SeriesNumber": 15,
      "SeriesTime": "132226.807000",
      "SliceLocation": -68.405899870991,
      "SliceThickness": 2.5,
      "SmallestImagePixelValue": 0,
      "SoftwareVersions": "syngo MR E11",
      "SpacingBetweenSlices": 2.500000073378,
      "SpecificCharacterSet": "ISO_IR 100",
      "StudyID": "2",
      "StudyTime": "125856.843000",
      "TransmitCoilName": "Body",
      "VariableFlipAngleFlag": "N",
      "WindowCenterWidthExplanation": "Algo1",
      "dBdt": 0.0
    },
    "slices": {}
  },
  "time": {
    "samples": {
      "AcquisitionNumber": [
        1,
        2,
        3,
        4,
        5,
        6,
        7,
        8,
        9,
        10,
        11,
        12,
        13,
        14,
        15,
        16,
        17,
        18,
        19,
        20,
        21,
        22,
        23,
        24,
        25,
        26,
        27,
        28,
        29,
        30,
        31,
        32,
        33,
        34,
        35,
        36,
        37,
        38,
        39,
        40,
        41,
        42,
        43,
        44,
        45,
        46,
        47,
        48,
        49,
        50,
        51,
        52,
        53,
        54,
        55,
        56,
        57,
        58,
        59,
        60,
        61,
        62,
        63,
        64,
        65,
        66,
        67,
        68,
        69,
        70,
        71,
        72,
        73,
        74,
        75,
        76,
        77,
        78,
        79,
        80,
        81,
        82,
        83,
        84,
        85,
        86,
        87,
        88,
        89,
        90,
        91,
        92,
        93,
        94,
        95,
        96,
        97,
        98,
        99,
        100,
        101,
        102,
        103,
        104,
        105,
        106,
        107,
        108,
        109,
        110,
        111,
        112,
        113,
        114,
        115,
        116,
        117,
        118,
        119,
        120,
        121,
        122,
        123,
        124,
        125,
        126,
        127,
        128,
        129,
        130,
        131,
        132,
        133,
        134,
        135,
        136,
        137,
        138,
        139,
        140,
        141,
        142,
        143,
        144,
        145,
        146,
        147,
        148,
        149,
        150,
        151,
        152,
        153,
        154,
        155,
        156,
        157,
        158,
        159,
        160,
        161,
        162,
        163,
        164,
        165,
        166,
        167,
        168,
        169,
        170,
        171,
        172,
        173,
        174,
        175,
        176,
        177,
        178,
        179,
        180,
        181,
        182,
        183,
        184,
        185,
        186,
        187,
        188,
        189,
        190,
        191,
        192,
        193,
        194,
        195,
        196,
        197,
        198,
        199,
        200,
        201,
        202,
        203,
        204,
        205,
        206,
        207,
        208,
        209,
        210,
        211,
        212,
        213,
        214,
        215,
        216,
        217,
        218,
        219,
        220,
        221,
        222,
        223,
        224,
        225,
        226,
        227,
        228,
        229,
        230,
        231,
        232,
        233,
        234,
        235,
        236,
        237,
        238,
        239,
        240,
        241,
        242,
        243,
        244,
        245,
        246,
        247,
        248,
        249,
        250,
        251,
        252,
        253,
        254,
        255,
        256,
        257,
        258,
        259,
        260,
        261,
        262,
        263,
        264,
        265,
        266,
        267,
        268,
        269,
        270,
        271,
        272,
        273,
        274,
        275,
        276,
        277,
        278,
        279,
        280,
        281,
        282,
        283,
        284,
        285,
        286,
        287,
        288
      ],
      "AcquisitionTime": [
        "132225.165000",
        "132226.165000",
        "132227.165000",
        "132228.165000",
        "132229.165000",
        "132230.165000",
        "132231.165000",
        "132232.165000",
        "132233.165000",
        "132234.165000",
        "132235.165000",
        "132236.165000",
        "132237.165000",
        "132238.165000",
        "132239.165000",
        "132240.165000",
        "132241.165000",
        "132242.165000",
        "132243.165000",
        "132244.165000",
        "132245.165000",
        "132246.165000",
        "132247.165000",
        "132248.165000",
        "132249.165000",
        "132250.165000",
        "132251.165000",
        "132252.165000",
        "132253.165000",
        "132254.165000",
        "132255.165000",
        "132256.165000",
        "132257.165000",
        "132258.165000",
        "132259.165000",
        "132300.165000",
        "132301.165000",
        "132302.165000",
        "132303.165000",
        "132304.165000",
        "132305.165000",
        "132306.165000",
        "132307.165000",
        "132308.165000",
        "132309.165000",
        "132310.165000",
        "132311.165000",
        "132312.165000",
        "132313.165000",
        "132314.165000",
        "132315.165000",
        "132316.165000",
        "132317.165000",
        "132318.165000",
        "132319.165000",
        "132320.165000",
        "132321.165000",
        "132322.165000",
        "132323.165000",
        "132324.165000",
        "132325.165000",
        "132326.165000",
        "132327.165000",
        "132328.165000",
        "132329.165000",
        "132330.165000",
        "132331.165000",
        "132332.165000",
        "132333.165000",
        "132334.165000",
        "132335.165000",
        "132336.165000",
        "132337.165000",
        "132338.165000",
        "132339.165000",
        "132340.165000",
        "132341.165000",
        "132342.165000",
        "132343.165000",
        "132344.165000",
        "132345.165000",
        "132346.165000",
        "132347.165000",
        "132348.165000",
        "132349.165000",
        "132350.165000",
        "132351.165000",
        "132352.165000",
        "132353.165000",
        "132354.165000",
        "132355.165000",
        "132356.165000",
        "132357.165000",
        "132358.165000",
        "132359.165000",
        "132400.165000",
        "132401.165000",
        "132402.165000",
        "132403.165000",
        "132404.165000",
        "132405.165000",
        "132406.165000",
        "132407.165000",
        "132408.165000",
        "132409.165000",
        "132410.165000",
        "132411.165000",
        "132412.165000",
        "132413.165000",
        "132414.165000",
        "132415.165000",
        "132416.165000",
        "132417.165000",
        "132418.165000",
        "132419.165000",
        "132420.165000",
        "132421.165000",
        "132422.165000",
        "132423.165000",
        "132424.165000",
        "132425.165000",
        "132426.165000",
        "132427.165000",
        "132428.165000",
        "132429.165000",
        "132430.165000",
        "132431.165000",
        "132432.165000",
        "132433.165000",
        "132434.165000",
        "132435.165000",
        "132436.165000",
        "132437.165000",
        "132438.165000",
        "132439.165000",
        "132440.165000",
        "132441.165000",
        "132442.165000",
        "132443.165000",
        "132444.165000",
        "132445.165000",
        "132446.165000",
        "132447.165000",
        "132448.165000",
        "132449.165000",
        "132450.165000",
        "132451.165000",
        "132452.165000",
        "132453.165000",
        "132454.165000",
        "132455.165000",
        "132456.165000",
        "132457.165000",
        "132458.165000",
        "132459.165000",
        "132500.165000",
        "132501.165000",
        "132502.165000",
        "132503.165000",
        "132504.165000",
        "132505.165000",
        "132506.165000",
        "132507.165000",
        "132508.165000",
        "132509.165000",
        "132510.165000",
        "132511.165000",
        "132512.165000",
        "132513.165000",
        "132514.165000",
        "132515.165000",
        "132516.165000",
        "132517.165000",
        "132518.165000",
        "132519.165000",
        "132520.165000",
        "132521.165000",
        "132522.165000",
        "132523.165000",
        "132524.165000",
        "132525.165000",
        "132526.165000",
        "132527.165000",
        "132528.165000",
        "132529.165000",
        "132530.165000",
        "132531.165000",
        "132532.165000",
        "132533.165000",
        "132534.165000",
        "132535.165000",
        "132536.165000",
        "132537.165000",
        "132538.165000",
        "132539.165000",
        "132540.165000",
        "132541.165000",
        "132542.165000",
        "132543.165000",
        "132544.165000",
        "132545.165000",
        "132546.165000",
        "132547.165000",
        "132548.165000",
        "132549.165000",
        "132550.165000",
        "132551.165000",
        "132552.165000",
        "132553.165000",
        "132554.165000",
        "132555.165000",
        "132556.165000",
        "132557.165000",
        "132558.165000",
        "132559.165000",
        "132600.165000",
        "132601.165000",
        "132602.165000",
        "132603.165000",
        "132604.165000",
        "132605.165000",
        "132606.165000",
        "132607.165000",
        "132608.165000",
        "132609.165000",
        "132610.165000",
        "132611.165000",
        "132612.165000",
        "132613.165000",
        "132614.165000",
        "132615.165000",
        "132616.165000",
        "132617.165000",
        "132618.165000",
        "132619.165000",
        "132620.165000",
        "132621.165000",
        "132622.165000",
        "132623.165000",
        "132624.165000",
        "132625.165000",
        "132626.165000",
        "132627.165000",
        "132628.165000",
        "132629.165000",
        "132630.165000",
        "132631.165000",
        "132632.165000",
        "132633.165000",
        "132634.165000",
        "132635.165000",
        "132636.165000",
        "132637.165000",
        "132638.165000",
        "132639.165000",
        "132640.165000",
        "132641.165000",
        "132642.165000",
        "132643.165000",
        "132644.165000",
        "132645.165000",
        "132646.165000",
        "132647.165000",
        "132648.165000",
        "132649.165000",
        "132650.165000",
        "132651.165000",
        "132652.165000",
        "132653.165000",
        "132654.165000",
        "132655.165000",
        "132656.165000",
        "132657.165000",
        "132658.165000",
        "132659.165000",
        "132700.165000",
        "132701.165000",
        "132702.165000",
        "132703.165000",
        "132704.165000",
        "132705.165000",
        "132706.165000",
        "132707.165000",
        "132708.165000",
        "132709.165000",
        "132710.165000",
        "132711.165000",
        "132712.165000"
      ],
      "ContentTime": [
        "132226.810000",
        "132227.626000",
        "132228.681000",
        "132229.619000",
        "132230.625000",
        "132231.639000",
        "132232.627000",
        "132233.642000",
        "132234.639000",
        "132235.634000",
        "132236.645000",
        "132237.665000",
        "132238.650000",
        "132239.653000",
        "132240.639000",
        "132241.636000",
        "132242.628000",
        "132243.640000",
        "132244.663000",
        "132245.636000",
        "132246.657000",
        "132247.663000",
        "132248.625000",
        "132249.607000",
        "132250.631000",
        "132251.640000",
        "132252.614000",
        "132253.645000",
        "132254.675000",
        "132255.642000",
        "132256.611000",
        "132257.691000",
        "132258.634000",
        "132259.638000",
        "132300.675000",
        "132301.617000",
        "132302.617000",
        "132303.681000",
        "132304.630000",
        "132305.641000",
        "132306.653000",
        "132307.652000",
        "132308.657000",
        "132309.622000",
        "132310.657000",
        "132311.636000",
        "132312.669000",
        "132313.694000",
        "132314.631000",
        "132315.606000",
        "132316.640000",
        "132317.654000",
        "132318.635000",
        "132319.649000",
        "132320.615000",
        "132321.629000",
        "132322.678000",
        "132323.644000",
        "132324.634000",
        "132325.672000",
        "132326.688000",
        "132327.625000",
        "132328.659000",
        "132329.608000",
        "132330.617000",
        "132331.622000",
        "132332.651000",
        "132333.627000",
        "132334.657000",
        "132335.608000",
        "132336.623000",
        "132337.643000",
        "132338.638000",
        "132339.651000",
        "132340.636000",
        "132341.616000",
        "132342.620000",
        "132343.628000",
        "132344.639000",
        "132345.629000",
        "132346.627000",
        "132347.648000",
        "132348.623000",
        "132349.620000",
        "132350.625000",
        "132351.630000",
        "132352.644000",
        "132353.645000",
        "132354.614000",
        "132355.640000",
        "132356.642000",
        "132357.654000",
        "132358.630000",
        "132359.609000",
        "132400.669000",
        "132401.662000",
        "132402.642000",
        "132403.629000",
        "132404.639000",
        "132405.609000",
        "132406.631000",
        "132407.631000",
        "132408.639000",
        "132409.609000",
        "132410.703000",
        "132411.719000",
        "132412.656000",
        "132413.633000",
        "132414.646000",
        "132415.625000",
        "132416.628000",
        "132417.615000",
        "132418.637000",
        "132419.654000",
        "132420.661000",
        "132421.634000",
        "132422.635000",
        "132423.649000",
        "132424.650000",
        "132425.639000",
        "132426.663000",
        "132427.627000",
        "132428.652000",
        "132429.637000",
        "132430.632000",
        "132431.627000",
        "132432.667000",
        "132433.641000",
        "132434.641000",
        "132435.644000",
        "132436.674000",
        "132437.644000",
        "132438.648000",
        "132439.651000",
        "132440.649000",
        "132441.636000",
        "132442.643000",
        "132443.637000",
        "132444.651000",
        "132445.667000",
        "132446.640000",
        "132447.634000",
        "132448.696000",
        "132449.653000",
        "132450.660000",
        "132451.639000",
        "132452.648000",
        "132453.631000",
        "132454.632000",
        "132455.618000",
        "132456.658000",
        "132457.637000",
        "132458.635000",
        "132459.622000",
        "132500.662000",
        "132501.638000",
        "132502.630000",
        "132503.638000",
        "132504.656000",
        "132505.647000",
        "132506.622000",
        "132507.643000",
        "132508.658000",
        "132509.692000",
        "132510.650000",
        "132511.630000",
        "132512.658000",
        "132513.655000",
        "132514.627000",
        "132515.619000",
        "132516.637000",
        "132517.656000",
        "132518.643000",
        "132519.625000",
        "132520.632000",
        "132521.653000",
        "132522.636000",
        "132523.627000",
        "132524.632000",
        "132525.649000",
        "132526.666000",
        "132527.678000",
        "132528.644000",
        "132529.662000",
        "132530.658000",
        "132531.644000",
        "132532.684000",
        "132533.634000",
        "132534.643000",
        "132535.647000",
        "132536.650000",
        "132537.654000",
        "132538.627000",
        "132539.641000",
        "132540.678000",
        "132541.674000",
        "132542.660000",
        "132543.638000",
        "132544.647000",
        "132545.627000",
        "132546.636000",
        "132547.641000",
        "132548.639000",
        "132549.653000",
        "132550.623000",
        "132551.611000",
        "132552.635000",
        "132553.630000",
        "132554.646000",
        "132555.611000",
        "132556.644000",
        "132557.657000",
        "132558.625000",
        "132559.620000",
        "132600.621000",
        "132601.614000",
        "132602.593000",
        "132603.634000",
        "132604.633000",
        "132605.627000",
        "132606.679000",
        "132607.637000",
        "132608.628000",
        "132609.601000",
        "132610.634000",
        "132611.640000",
        "132612.640000",
        "132613.639000",
        "132614.635000",
        "132615.637000",
        "132616.633000",
        "132617.607000",
        "132618.651000",
        "132619.641000",
        "132620.668000",
        "132621.639000",
        "132622.618000",
        "132623.659000",
        "132624.631000",
        "132625.612000",
        "132626.647000",
        "132627.658000",
        "132628.641000",
        "132629.642000",
        "132630.669000",
        "132631.668000",
        "132632.676000",
        "132633.615000",
        "132634.647000",
        "132635.665000",
        "132636.608000",
        "132637.636000",
        "132638.604000",
        "132639.642000",
        "132640.617000",
        "132641.633000",
        "132642.606000",
        "132643.641000",
        "132644.656000",
        "132645.648000",
        "132646.632000",
        "132647.625000",
        "132648.625000",
        "132649.651000",
        "132650.614000",
        "132651.641000",
        "132652.650000",
        "132653.632000",
        "132654.626000",
        "132655.628000",
        "132656.675000",
        "132657.643000",
        "132658.658000",
        "132659.643000",
        "132700.627000",
        "132701.648000",
        "132702.653000",
        "132703.650000",
        "132704.618000",
        "132705.629000",
        "132706.640000",
        "132707.606000",
        "132708.631000",
        "132709.635000",
        "132710.630000",
        "132711.651000",
        "132712.662000",
        "132713.662000"
      ],
      "InstanceCreationTime": [
        "132226.810000",
        "132227.626000",
        "132228.681000",
        "132229.619000",
        "132230.625000",
        "132231.639000",
        "132232.627000",
        "132233.642000",
        "132234.639000",
        "132235.634000",
        "132236.645000",
        "132237.665000",
        "132238.650000",
        "132239.653000",
        "132240.639000",
        "132241.636000",
        "132242.628000",
        "132243.640000",
        "132244.663000",
        "132245.636000",
        "132246.657000",
        "132247.663000",
        "132248.625000",
        "132249.607000",
        "132250.631000",
        "132251.640000",
        "132252.614000",
        "132253.645000",
        "132254.675000",
        "132255.642000",
        "132256.611000",
        "132257.691000",
        "132258.634000",
        "132259.638000",
        "132300.675000",
        "132301.617000",
        "132302.617000",
        "132303.681000",
        "132304.630000",
        "132305.641000",
        "132306.653000",
        "132307.652000",
        "132308.657000",
        "132309.622000",
        "132310.657000",
        "132311.636000",
        "132312.669000",
        "132313.694000",
        "132314.631000",
        "132315.606000",
        "132316.640000",
        "132317.654000",
        "132318.635000",
        "132319.649000",
        "132320.615000",
        "132321.629000",
        "132322.678000",
        "132323.644000",
        "132324.634000",
        "132325.672000",
        "132326.688000",
        "132327.625000",
        "132328.659000",
        "132329.608000",
        "132330.617000",
        "132331.622000",
        "132332.651000",
        "132333.627000",
        "132334.657000",
        "132335.608000",
        "132336.623000",
        "132337.643000",
        "132338.638000",
        "132339.651000",
        "132340.636000",
        "132341.616000",
        "132342.620000",
        "132343.628000",
        "132344.639000",
        "132345.629000",
        "132346.627000",
        "132347.648000",
        "132348.623000",
        "132349.620000",
        "132350.625000",
        "132351.630000",
        "132352.644000",
        "132353.645000",
        "132354.614000",
        "132355.640000",
        "132356.642000",
        "132357.654000",
        "132358.630000",
        "132359.609000",
        "132400.669000",
        "132401.662000",
        "132402.642000",
        "132403.629000",
        "132404.639000",
        "132405.609000",
        "132406.631000",
        "132407.631000",
        "132408.639000",
        "132409.609000",
        "132410.703000",
        "132411.719000",
        "132412.656000",
        "132413.633000",
        "132414.646000",
        "132415.625000",
        "132416.628000",
        "132417.615000",
        "132418.637000",
        "132419.654000",
        "132420.661000",
        "132421.634000",
        "132422.635000",
        "132423.649000",
        "132424.650000",
        "132425.639000",
        "132426.663000",
        "132427.627000",
        "132428.652000",
        "132429.637000",
        "132430.632000",
        "132431.627000",
        "132432.667000",
        "132433.641000",
        "132434.641000",
        "132435.644000",
        "132436.674000",
        "132437.644000",
        "132438.648000",
        "132439.651000",
        "132440.649000",
        "132441.636000",
        "132442.643000",
        "132443.637000",
        "132444.651000",
        "132445.667000",
        "132446.640000",
        "132447.634000",
        "132448.696000",
        "132449.653000",
        "132450.660000",
        "132451.639000",
        "132452.648000",
        "132453.631000",
        "132454.632000",
        "132455.618000",
        "132456.658000",
        "132457.637000",
        "132458.635000",
        "132459.622000",
        "132500.662000",
        "132501.638000",
        "132502.630000",
        "132503.638000",
        "132504.656000",
        "132505.647000",
        "132506.622000",
        "132507.643000",
        "132508.658000",
        "132509.692000",
        "132510.650000",
        "132511.630000",
        "132512.658000",
        "132513.655000",
        "132514.627000",
        "132515.619000",
        "132516.637000",
        "132517.656000",
        "132518.643000",
        "132519.625000",
        "132520.632000",
        "132521.653000",
        "132522.636000",
        "132523.627000",
        "132524.632000",
        "132525.649000",
        "132526.666000",
        "132527.678000",
        "132528.644000",
        "132529.662000",
        "132530.658000",
        "132531.644000",
        "132532.684000",
        "132533.634000",
        "132534.643000",
        "132535.647000",
        "132536.650000",
        "132537.654000",
        "132538.627000",
        "132539.641000",
        "132540.678000",
        "132541.674000",
        "132542.660000",
        "132543.638000",
        "132544.647000",
        "132545.627000",
        "132546.636000",
        "132547.641000",
        "132548.639000",
        "132549.653000",
        "132550.623000",
        "132551.611000",
        "132552.635000",
        "132553.630000",
        "132554.646000",
        "132555.611000",
        "132556.644000",
        "132557.657000",
        "132558.625000",
        "132559.620000",
        "132600.621000",
        "132601.614000",
        "132602.593000",
        "132603.634000",
        "132604.633000",
        "132605.627000",
        "132606.679000",
        "132607.637000",
        "132608.628000",
        "132609.601000",
        "132610.634000",
        "132611.640000",
        "132612.640000",
        "132613.639000",
        "132614.635000",
        "132615.637000",
        "132616.633000",
        "132617.607000",
        "132618.651000",
        "132619.641000",
        "132620.668000",
        "132621.639000",
        "132622.618000",
        "132623.659000",
        "132624.631000",
        "132625.612000",
        "132626.647000",
        "132627.658000",
        "132628.641000",
        "132629.642000",
        "132630.669000",
        "132631.668000",
        "132632.676000",
        "132633.615000",
        "132634.647000",
        "132635.665000",
        "132636.608000",
        "132637.636000",
        "132638.604000",
        "132639.642000",
        "132640.617000",
        "132641.633000",
