{
  "AcquisitionMatrixPE": 96,
  "AcquisitionNumber": 1,
  "AcquisitionTime": "13:49:27.012500",
  "BandwidthPerPixelPhaseEncode": 18.939,
  "BaseResolution": 96,
  "BodyPartExamined": "BRAIN",
  "ConsistencyInfo": "N4_VE11C_LATEST_20160120",
  "ConversionSoftware": "dcm2niix",
  "ConversionSoftwareVersion": "v1.0.20170923 (OpenJPEG build) GCC6.3.0",
  "DerivedVendorReportedEchoSpacing": 0.000550011,
  "DeviceSerialNumber": "66112",
  "DwellTime": 2.2e-06,
  "EchoTime": 0.033,
  "EchoTrainLength": 96,
  "EffectiveEchoSpacing": 0.000550011,
  "FlipAngle": 59,
  "ImageType": [
    "ORIGINAL",
    "PRIMARY",
    "FMRI",
    "NONE",
    "ND",
    "NORM",
    "MOSAIC"
  ],
  "InstitutionAddress": "Maynard_3_Hanover_NH_US_03755",
  "InstitutionName": "Dartmouth_College_-_PBS",
  "MagneticFieldStrength": 3,
  "Manufacturer": "Siemens",
  "ManufacturersModelName": "Prisma",
  "Modality": "MR",
  "MultibandAccelerationFactor": 4,
  "PercentPhaseFOV": 100,
  "PhaseEncodingDirection": "j-",
  "PhaseEncodingSteps": 96,
  "PhaseResolution": 1,
  "ProcedureStepDescription": "Gobbini_Matteo_1038_hyperface",
  "ProtocolName": "func_run-07_task-visualmemory",
  "PulseSequenceDetails": "%SiemensSeq%_ep2d_bold",
  "ReceiveCoilActiveElements": "HEA;HEP",
  "ReceiveCoilName": "Head_32",
  "ReconMatrixPE": 96,
  "RepetitionTime": 1,
  "ScanOptions": "FS",
  "ScanningSequence": "EP",
  "SequenceName": "_epfid2d1_96",
  "SequenceVariant": "SK",
  "SeriesDescription": "func_run-07_task-visualmemory",
  "SliceTiming": [
    0.735,
    0,
    0.49,
    0.08,
    0.57,
    0.1625,
    0.6525,
    0.325,
    0.815,
    0.4075,
    0.8975,
    0.245,
    0.735,
    0,
    0.49,
    0.08,
    0.57,
    0.1625,
    0.6525,
    0.325,
    0.815,
    0.4075,
    0.8975,
    0.245,
    0.735,
    0,
    0.49,
    0.08,
    0.57,
    0.1625,
    0.6525,
    0.325,
    0.815,
    0.4075,
    0.8975,
    0.245,
    0.735,
    0,
    0.49,
    0.08,
    0.57,
    0.1625,
    0.6525,
    0.325,
    0.815,
    0.4075,
    0.8975,
    0.245
  ],
  "SoftwareVersions": "syngo_MR_E11",
  "StationName": "AWP66112",
  "TotalReadoutTime": 0.0522511,
  "dcmmeta_affine": [
    [
      -2.4993081092834473,
      -0.0488617904484272,
      0.03273340314626694,
      127.24546813964844
    ],
    [
      -0.04900839179754257,
      2.4994957447052,
      -0.010913345962762833,
      -105.73026275634766
    ],
    [
      0.03251350298523903,
      0.011552009731531143,
      2.4997620582580566,
      -70.54023742675781
    ],
    [
      0.0,
      0.0,
      0.0,
      1.0
    ]
  ],
  "dcmmeta_reorient_transform": [
    [
      0.0,
      -1.0,
      0.0,
      95.0
    ],
    [
      1.0,
      0.0,
      0.0,
      0.0
    ],
    [
      0.0,
      0.0,
      1.0,
      0.0
    ],
    [
      0.0,
      0.0,
      0.0,
      1.0
    ]
  ],
  "dcmmeta_shape": [
    96,
    96,
    48,
    288
  ],
  "dcmmeta_slice_dim": 2,
  "dcmmeta_version": 0.6,
  "global": {
    "const": {
      "AccessionNumber": "A001140",
      "AcquisitionMatrix": [
        96,
        0,
        0,
        96
      ],
      "AngioFlag": "N",
      "BitsAllocated": 16,
      "BitsStored": 12,
      "BodyPartExamined": "BRAIN",
      "Columns": 672,
      "EchoNumbers": 1,
      "EchoTime": 33.0,
      "EchoTrainLength": 96,
      "FlipAngle": 59.0,
      "HighBit": 11,
      "ImageOrientationPatient": [
        0.99972324567735,
        0.01960335709741,
        0.0130054005267,
        -0.0195447168917,
        0.99979830576583,
        -0.0046208039778
      ],
      "ImagePositionPatient": [
        -828.33213857646,
        -865.69103446228,
        -75.47970660893
      ],
      "ImageType": [
        "ORIGINAL",
        "PRIMARY",
        "FMRI",
        "NONE",
        "ND",
        "NORM",
        "MOSAIC"
      ],
      "ImagedNucleus": "1H",
      "ImagingFrequency": 123.25227,
      "InPlanePhaseEncodingDirection": "COL",
      "MRAcquisitionType": "2D",
      "MagneticFieldStrength": 3.0,
      "Manufacturer": "SIEMENS",
      "ManufacturerModelName": "Prisma",
      "Modality": "MR",
      "NumberOfAverages": 1.0,
      "NumberOfPhaseEncodingSteps": 96,
      "PercentPhaseFieldOfView": 100.0,
      "PercentSampling": 100.0,
      "PerformedProcedureStepStartTime": "125856.985000",
      "PhotometricInterpretation": "MONOCHROME2",
      "PixelBandwidth": 2365.0,
      "PixelRepresentation": 0,
      "PixelSpacing": [
        2.5,
        2.5
      ],
      "PositionReferenceIndicator": "",
      "ProtocolName": "func_run-07_task-visualmemory",
      "RepetitionTime": 1000.0,
      "Rows": 672,
      "SAR": 0.07162535388037,
      "SamplesPerPixel": 1,
      "ScanOptions": "FS",
      "ScanningSequence": "EP",
      "SequenceName": "*epfid2d1_96",
      "SequenceVariant": "SK",
      "SeriesDescription": "func_run-07_task-visualmemory",
      "SeriesNumber": 50,
      "SeriesTime": "134928.701000",
      "SliceLocation": -68.405899870991,
      "SliceThickness": 2.5,
      "SmallestImagePixelValue": 0,
      "SoftwareVersions": "syngo MR E11",
      "SpacingBetweenSlices": 2.500000073378,
      "SpecificCharacterSet": "ISO_IR 100",
      "StudyID": "2",
      "StudyTime": "125856.843000",
      "TransmitCoilName": "Body",
      "VariableFlipAngleFlag": "N",
      "WindowCenterWidthExplanation": "Algo1",
      "dBdt": 0.0
    },
    "slices": {}
  },
  "time": {
    "samples": {
      "AcquisitionNumber": [
        1,
        2,
        3,
        4,
        5,
        6,
        7,
        8,
        9,
        10,
        11,
        12,
        13,
        14,
        15,
        16,
        17,
        18,
        19,
        20,
        21,
        22,
        23,
        24,
        25,
        26,
        27,
        28,
        29,
        30,
        31,
        32,
        33,
        34,
        35,
        36,
        37,
        38,
        39,
        40,
        41,
        42,
        43,
        44,
        45,
        46,
        47,
        48,
        49,
        50,
        51,
        52,
        53,
        54,
        55,
        56,
        57,
        58,
        59,
        60,
        61,
        62,
        63,
        64,
        65,
        66,
        67,
        68,
        69,
        70,
        71,
        72,
        73,
        74,
        75,
        76,
        77,
        78,
        79,
        80,
        81,
        82,
        83,
        84,
        85,
        86,
        87,
        88,
        89,
        90,
        91,
        92,
        93,
        94,
        95,
        96,
        97,
        98,
        99,
        100,
        101,
        102,
        103,
        104,
        105,
        106,
        107,
        108,
        109,
        110,
        111,
        112,
        113,
        114,
        115,
        116,
        117,
        118,
        119,
        120,
        121,
        122,
        123,
        124,
        125,
        126,
        127,
        128,
        129,
        130,
        131,
        132,
        133,
        134,
        135,
        136,
        137,
        138,
        139,
        140,
        141,
        142,
        143,
        144,
        145,
        146,
        147,
        148,
        149,
        150,
        151,
        152,
        153,
        154,
        155,
        156,
        157,
        158,
        159,
        160,
        161,
        162,
        163,
        164,
        165,
        166,
        167,
        168,
        169,
        170,
        171,
        172,
        173,
        174,
        175,
        176,
        177,
        178,
        179,
        180,
        181,
        182,
        183,
        184,
        185,
        186,
        187,
        188,
        189,
        190,
        191,
        192,
        193,
        194,
        195,
        196,
        197,
        198,
        199,
        200,
        201,
        202,
        203,
        204,
        205,
        206,
        207,
        208,
        209,
        210,
        211,
        212,
        213,
        214,
        215,
        216,
        217,
        218,
        219,
        220,
        221,
        222,
        223,
        224,
        225,
        226,
        227,
        228,
        229,
        230,
        231,
        232,
        233,
        234,
        235,
        236,
        237,
        238,
        239,
        240,
        241,
        242,
        243,
        244,
        245,
        246,
        247,
        248,
        249,
        250,
        251,
        252,
        253,
        254,
        255,
        256,
        257,
        258,
        259,
        260,
        261,
        262,
        263,
        264,
        265,
        266,
        267,
        268,
        269,
        270,
        271,
        272,
        273,
        274,
        275,
        276,
        277,
        278,
        279,
        280,
        281,
        282,
        283,
        284,
        285,
        286,
        287,
        288
      ],
      "AcquisitionTime": [
        "134927.012500",
        "134928.012500",
        "134929.012500",
        "134930.012500",
        "134931.012500",
        "134932.012500",
        "134933.012500",
        "134934.012500",
        "134935.012500",
        "134936.012500",
        "134937.012500",
        "134938.012500",
        "134939.012500",
        "134940.012500",
        "134941.012500",
        "134942.012500",
        "134943.012500",
        "134944.012500",
        "134945.012500",
        "134946.012500",
        "134947.012500",
        "134948.012500",
        "134949.012500",
        "134950.012500",
        "134951.012500",
        "134952.012500",
        "134953.012500",
        "134954.012500",
        "134955.012500",
        "134956.012500",
        "134957.012500",
        "134958.012500",
        "134959.012500",
        "135000.012500",
        "135001.012500",
        "135002.012500",
        "135003.012500",
        "135004.012500",
        "135005.012500",
        "135006.012500",
        "135007.012500",
        "135008.012500",
        "135009.012500",
        "135010.012500",
        "135011.012500",
        "135012.012500",
        "135013.012500",
        "135014.012500",
        "135015.012500",
        "135016.012500",
        "135017.012500",
        "135018.012500",
        "135019.012500",
        "135020.012500",
        "135021.012500",
        "135022.012500",
        "135023.012500",
        "135024.012500",
        "135025.012500",
        "135026.012500",
        "135027.012500",
        "135028.012500",
        "135029.012500",
        "135030.012500",
        "135031.012500",
        "135032.012500",
        "135033.012500",
        "135034.012500",
        "135035.012500",
        "135036.012500",
        "135037.012500",
        "135038.012500",
        "135039.012500",
        "135040.012500",
        "135041.012500",
        "135042.012500",
        "135043.012500",
        "135044.012500",
        "135045.012500",
        "135046.012500",
        "135047.012500",
        "135048.012500",
        "135049.012500",
        "135050.012500",
        "135051.012500",
        "135052.012500",
        "135053.012500",
        "135054.012500",
        "135055.012500",
        "135056.012500",
        "135057.012500",
        "135058.012500",
        "135059.012500",
        "135100.012500",
        "135101.012500",
        "135102.012500",
        "135103.012500",
        "135104.012500",
        "135105.012500",
        "135106.012500",
        "135107.012500",
        "135108.012500",
        "135109.012500",
        "135110.012500",
        "135111.012500",
        "135112.012500",
        "135113.012500",
        "135114.012500",
        "135115.012500",
        "135116.012500",
        "135117.012500",
        "135118.012500",
        "135119.012500",
        "135120.012500",
        "135121.012500",
        "135122.012500",
        "135123.012500",
        "135124.012500",
        "135125.012500",
        "135126.012500",
        "135127.012500",
        "135128.012500",
        "135129.012500",
        "135130.012500",
        "135131.012500",
        "135132.012500",
        "135133.012500",
        "135134.012500",
        "135135.012500",
        "135136.012500",
        "135137.012500",
        "135138.012500",
        "135139.012500",
        "135140.012500",
        "135141.012500",
        "135142.012500",
        "135143.012500",
        "135144.012500",
        "135145.012500",
        "135146.012500",
        "135147.012500",
        "135148.012500",
        "135149.012500",
        "135150.012500",
        "135151.012500",
        "135152.012500",
        "135153.012500",
        "135154.012500",
        "135155.012500",
        "135156.012500",
        "135157.012500",
        "135158.012500",
        "135159.012500",
        "135200.012500",
        "135201.012500",
        "135202.012500",
        "135203.012500",
        "135204.012500",
        "135205.012500",
        "135206.012500",
        "135207.012500",
        "135208.012500",
        "135209.012500",
        "135210.012500",
        "135211.012500",
        "135212.012500",
        "135213.012500",
        "135214.012500",
        "135215.012500",
        "135216.012500",
        "135217.012500",
        "135218.012500",
        "135219.012500",
        "135220.012500",
        "135221.012500",
        "135222.012500",
        "135223.012500",
        "135224.012500",
        "135225.012500",
        "135226.012500",
        "135227.012500",
        "135228.012500",
        "135229.012500",
        "135230.012500",
        "135231.012500",
        "135232.012500",
        "135233.012500",
        "135234.012500",
        "135235.012500",
        "135236.012500",
        "135237.012500",
        "135238.012500",
        "135239.012500",
        "135240.012500",
        "135241.012500",
        "135242.012500",
        "135243.012500",
        "135244.012500",
        "135245.012500",
        "135246.012500",
        "135247.012500",
        "135248.012500",
        "135249.012500",
        "135250.012500",
        "135251.012500",
        "135252.012500",
        "135253.012500",
        "135254.012500",
        "135255.012500",
        "135256.012500",
        "135257.012500",
        "135258.012500",
        "135259.012500",
        "135300.012500",
        "135301.012500",
        "135302.012500",
        "135303.012500",
        "135304.012500",
        "135305.012500",
        "135306.012500",
        "135307.012500",
        "135308.012500",
        "135309.012500",
        "135310.012500",
        "135311.012500",
        "135312.012500",
        "135313.012500",
        "135314.012500",
        "135315.012500",
        "135316.012500",
        "135317.012500",
        "135318.012500",
        "135319.012500",
        "135320.012500",
        "135321.012500",
        "135322.012500",
        "135323.012500",
        "135324.012500",
        "135325.012500",
        "135326.012500",
        "135327.012500",
        "135328.012500",
        "135329.012500",
        "135330.012500",
        "135331.012500",
        "135332.012500",
        "135333.012500",
        "135334.012500",
        "135335.012500",
        "135336.012500",
        "135337.012500",
        "135338.012500",
        "135339.012500",
        "135340.012500",
        "135341.012500",
        "135342.012500",
        "135343.012500",
        "135344.012500",
        "135345.012500",
        "135346.012500",
        "135347.012500",
        "135348.012500",
        "135349.012500",
        "135350.012500",
        "135351.012500",
        "135352.012500",
        "135353.012500",
        "135354.012500",
        "135355.012500",
        "135356.012500",
        "135357.012500",
        "135358.012500",
        "135359.012500",
        "135400.012500",
        "135401.012500",
        "135402.012500",
        "135403.012500",
        "135404.012500",
        "135405.012500",
        "135406.012500",
        "135407.012500",
        "135408.012500",
        "135409.012500",
        "135410.012500",
        "135411.012500",
        "135412.012500",
        "135413.012500",
        "135414.012500"
      ],
      "ContentTime": [
        "134928.705000",
        "134929.549000",
        "134930.549000",
        "134931.555000",
        "134932.560000",
        "134933.564000",
        "134934.591000",
        "134935.584000",
        "134936.545000",
        "134937.626000",
        "134938.543000",
        "134939.566000",
        "134940.542000",
        "134941.553000",
        "134942.542000",
        "134943.528000",
        "134944.562000",
        "134945.545000",
        "134946.565000",
        "134947.529000",
        "134948.546000",
        "134949.554000",
        "134950.562000",
        "134951.592000",
        "134952.600000",
        "134953.549000",
        "134954.552000",
        "134955.568000",
        "134956.594000",
        "134957.544000",
        "134958.563000",
        "134959.542000",
        "135000.549000",
        "135001.579000",
        "135002.544000",
        "135003.545000",
        "135004.537000",
        "135005.544000",
        "135006.552000",
        "135007.583000",
        "135008.532000",
        "135009.577000",
        "135010.542000",
        "135011.531000",
        "135012.542000",
        "135013.561000",
        "135014.557000",
        "135015.610000",
        "135016.564000",
        "135017.518000",
        "135018.528000",
        "135019.552000",
        "135020.544000",
        "135021.542000",
        "135022.551000",
        "135023.565000",
        "135024.534000",
        "135025.534000",
        "135026.568000",
        "135027.532000",
        "135028.527000",
        "135029.555000",
        "135030.600000",
        "135031.549000",
        "135032.546000",
        "135033.544000",
        "135034.551000",
        "135035.594000",
        "135036.576000",
        "135037.517000",
        "135038.575000",
        "135039.542000",
        "135040.541000",
        "135041.530000",
        "135042.541000",
        "135043.503000",
        "135044.561000",
        "135045.527000",
        "135046.543000",
        "135047.552000",
        "135048.554000",
        "135049.522000",
        "135050.577000",
        "135051.535000",
        "135052.555000",
        "135053.568000",
        "135054.541000",
        "135055.547000",
        "135056.546000",
        "135057.547000",
        "135058.524000",
        "135059.587000",
        "135100.590000",
        "135101.561000",
        "135102.573000",
        "135103.540000",
        "135104.598000",
        "135105.553000",
        "135106.546000",
        "135107.553000",
        "135108.533000",
        "135109.569000",
        "135110.552000",
        "135111.536000",
        "135112.559000",
        "135113.554000",
        "135114.523000",
        "135115.547000",
        "135116.548000",
        "135117.550000",
        "135118.569000",
        "135119.536000",
        "135120.556000",
        "135121.562000",
        "135122.568000",
        "135123.540000",
        "135124.542000",
        "135125.590000",
        "135126.543000",
        "135127.537000",
        "135128.580000",
        "135129.546000",
        "135130.572000",
        "135131.545000",
        "135132.570000",
        "135133.545000",
        "135134.528000",
        "135135.577000",
        "135136.544000",
        "135137.593000",
        "135138.568000",
        "135139.554000",
        "135140.584000",
        "135141.554000",
        "135142.575000",
        "135143.553000",
        "135144.578000",
        "135145.622000",
        "135146.536000",
        "135147.580000",
        "135148.563000",
        "135149.575000",
        "135150.562000",
        "135151.547000",
        "135152.637000",
        "135153.559000",
        "135154.536000",
        "135155.545000",
        "135156.552000",
        "135157.548000",
        "135158.558000",
        "135159.558000",
        "135200.572000",
        "135201.571000",
        "135202.553000",
        "135203.601000",
        "135204.568000",
        "135205.553000",
        "135206.568000",
        "135207.554000",
        "135208.531000",
        "135209.529000",
        "135210.538000",
        "135211.550000",
        "135212.541000",
        "135213.561000",
        "135214.571000",
        "135215.557000",
        "135216.514000",
        "135217.535000",
        "135218.529000",
        "135219.554000",
        "135220.554000",
        "135221.565000",
        "135222.534000",
        "135223.568000",
        "135224.548000",
        "135225.550000",
        "135226.561000",
        "135227.587000",
        "135228.523000",
        "135229.519000",
        "135230.565000",
        "135231.562000",
        "135232.555000",
        "135233.523000",
        "135234.547000",
        "135235.540000",
        "135236.551000",
        "135237.566000",
        "135238.539000",
        "135239.536000",
        "135240.549000",
        "135241.614000",
        "135242.615000",
        "135243.548000",
        "135244.549000",
        "135245.565000",
        "135246.524000",
        "135247.525000",
        "135248.560000",
        "135249.573000",
        "135250.564000",
        "135251.542000",
        "135252.554000",
        "135253.540000",
        "135254.570000",
        "135255.555000",
        "135256.575000",
        "135257.569000",
        "135258.572000",
        "135259.540000",
        "135300.578000",
        "135301.533000",
        "135302.542000",
        "135303.542000",
        "135304.546000",
        "135305.556000",
        "135306.575000",
        "135307.561000",
        "135308.542000",
        "135309.579000",
        "135310.540000",
        "135311.552000",
        "135312.557000",
        "135313.544000",
        "135314.556000",
        "135315.575000",
        "135316.543000",
        "135317.557000",
        "135318.562000",
        "135319.587000",
        "135320.563000",
        "135321.617000",
        "135322.552000",
        "135323.556000",
        "135324.546000",
        "135325.578000",
        "135326.535000",
        "135327.551000",
        "135328.537000",
        "135329.562000",
        "135330.562000",
        "135331.548000",
        "135332.543000",
        "135333.556000",
        "135334.539000",
        "135335.532000",
        "135336.592000",
        "135337.569000",
        "135338.552000",
        "135339.544000",
        "135340.511000",
        "135341.541000",
        "135342.555000",
        "135343.565000",
        "135344.597000",
        "135345.554000",
        "135346.544000",
        "135347.553000",
        "135348.564000",
        "135349.541000",
        "135350.532000",
        "135351.548000",
        "135352.559000",
        "135353.568000",
        "135354.593000",
        "135355.554000",
        "135356.542000",
        "135357.536000",
        "135358.548000",
        "135359.553000",
        "135400.545000",
        "135401.629000",
        "135402.545000",
        "135403.555000",
        "135404.526000",
        "135405.535000",
        "135406.542000",
        "135407.553000",
        "135408.550000",
        "135409.531000",
        "135410.553000",
        "135411.580000",
        "135412.547000",
        "135413.545000",
        "135414.557000",
        "135415.560000"
      ],
      "InstanceCreationTime": [
        "134928.705000",
        "134929.549000",
        "134930.549000",
        "134931.555000",
        "134932.560000",
        "134933.564000",
        "134934.591000",
        "134935.584000",
        "134936.545000",
        "134937.626000",
        "134938.543000",
        "134939.566000",
        "134940.542000",
        "134941.553000",
        "134942.542000",
        "134943.528000",
        "134944.562000",
        "134945.545000",
        "134946.565000",
        "134947.529000",
        "134948.546000",
        "134949.554000",
        "134950.562000",
        "134951.592000",
        "134952.600000",
        "134953.549000",
        "134954.552000",
        "134955.568000",
        "134956.594000",
        "134957.544000",
        "134958.563000",
        "134959.542000",
        "135000.549000",
        "135001.579000",
        "135002.544000",
        "135003.545000",
        "135004.537000",
        "135005.544000",
        "135006.552000",
        "135007.583000",
        "135008.532000",
        "135009.577000",
        "135010.542000",
        "135011.531000",
        "135012.542000",
        "135013.561000",
        "135014.557000",
        "135015.610000",
        "135016.564000",
        "135017.518000",
        "135018.528000",
        "135019.552000",
        "135020.544000",
        "135021.542000",
        "135022.551000",
        "135023.565000",
        "135024.534000",
        "135025.534000",
        "135026.568000",
        "135027.532000",
        "135028.527000",
        "135029.555000",
        "135030.600000",
        "135031.549000",
        "135032.546000",
        "135033.544000",
        "135034.551000",
        "135035.594000",
        "135036.576000",
        "135037.517000",
        "135038.575000",
        "135039.542000",
        "135040.541000",
        "135041.530000",
        "135042.541000",
        "135043.503000",
        "135044.561000",
        "135045.527000",
        "135046.543000",
        "135047.552000",
        "135048.554000",
        "135049.522000",
        "135050.577000",
        "135051.535000",
        "135052.555000",
        "135053.568000",
        "135054.541000",
        "135055.547000",
        "135056.546000",
        "135057.547000",
        "135058.524000",
        "135059.587000",
        "135100.590000",
        "135101.561000",
        "135102.573000",
        "135103.540000",
        "135104.598000",
        "135105.553000",
        "135106.546000",
        "135107.553000",
        "135108.533000",
        "135109.569000",
        "135110.552000",
        "135111.536000",
        "135112.559000",
        "135113.554000",
        "135114.523000",
        "135115.547000",
        "135116.548000",
        "135117.550000",
        "135118.569000",
        "135119.536000",
        "135120.556000",
        "135121.562000",
        "135122.568000",
        "135123.540000",
        "135124.542000",
        "135125.590000",
        "135126.543000",
        "135127.537000",
        "135128.580000",
        "135129.546000",
        "135130.572000",
        "135131.545000",
        "135132.570000",
        "135133.545000",
        "135134.528000",
        "135135.577000",
        "135136.544000",
        "135137.593000",
        "135138.568000",
        "135139.554000",
        "135140.584000",
        "135141.554000",
        "135142.575000",
        "135143.553000",
        "135144.578000",
        "135145.622000",
        "135146.536000",
        "135147.580000",
        "135148.563000",
        "135149.575000",
        "135150.562000",
        "135151.547000",
        "135152.637000",
        "135153.559000",
        "135154.536000",
        "135155.545000",
        "135156.552000",
        "135157.548000",
        "135158.558000",
        "135159.558000",
        "135200.572000",
        "135201.571000",
        "135202.553000",
        "135203.601000",
        "135204.568000",
        "135205.553000",
        "135206.568000",
        "135207.554000",
        "135208.531000",
        "135209.529000",
        "135210.538000",
        "135211.550000",
        "135212.541000",
        "135213.561000",
        "135214.571000",
        "135215.557000",
        "135216.514000",
        "135217.535000",
        "135218.529000",
        "135219.554000",
        "135220.554000",
        "135221.565000",
        "135222.534000",
        "135223.568000",
        "135224.548000",
        "135225.550000",
        "135226.561000",
        "135227.587000",
        "135228.523000",
        "135229.519000",
        "135230.565000",
        "135231.562000",
        "135232.555000",
        "135233.523000",
        "135234.547000",
        "135235.540000",
        "135236.551000",
        "135237.566000",
        "135238.539000",
        "135239.536000",
        "135240.549000",
        "135241.614000",
        "135242.615000",
        "135243.548000",
        "135244.549000",
        "135245.565000",
        "135246.524000",
        "135247.525000",
        "135248.560000",
        "135249.573000",
        "135250.564000",
        "135251.542000",
        "135252.554000",
        "135253.540000",
        "135254.570000",
        "135255.555000",
        "135256.575000",
        "135257.569000",
        "135258.572000",
        "135259.540000",
        "135300.578000",
        "135301.533000",
        "135302.542000",
        "135303.542000",
        "135304.546000",
        "135305.556000",
        "135306.575000",
        "135307.561000",
        "135308.542000",
        "135309.579000",
        "135310.540000",
        "135311.552000",
        "135312.557000",
        "135313.544000",
        "135314.556000",
        "135315.575000",
        "135316.543000",
        "135317.557000",
        "135318.562000",
        "135319.587000",
        "135320.563000",
        "135321.617000",
        "135322.552000",
        "135323.556000",
        "135324.546000",
        "135325.578000",
        "135326.535000",
        "135327.551000",
        "135328.537000",
        "135329.562000",
        "135330.562000",
        "135331.548000",
        "135332.543000",
        "135333.556000",
        "135334.539000",
        "135335.532000",
        "135336.592000",
        "135337.569000",
        "135338.552000",
        "135339.544000",
        "135340.511000",
        "135341.541000",
        "135342.555000",
        "135343.565000",
