{
  "AcquisitionMatrixPE": 96,
  "AcquisitionNumber": 1,
  "AcquisitionTime": "13:33:30.087500",
  "BandwidthPerPixelPhaseEncode": 18.939,
  "BaseResolution": 96,
  "BodyPartExamined": "BRAIN",
  "ConsistencyInfo": "N4_VE11C_LATEST_20160120",
  "ConversionSoftware": "dcm2niix",
  "ConversionSoftwareVersion": "v1.0.20170923 (OpenJPEG build) GCC6.3.0",
  "DerivedVendorReportedEchoSpacing": 0.000550011,
  "DeviceSerialNumber": "66112",
  "DwellTime": 2.2e-06,
  "EchoTime": 0.033,
  "EchoTrainLength": 96,
  "EffectiveEchoSpacing": 0.000550011,
  "FlipAngle": 59,
  "ImageType": [
    "ORIGINAL",
    "PRIMARY",
    "FMRI",
    "NONE",
    "ND",
    "NORM",
    "MOSAIC"
  ],
  "InstitutionAddress": "Maynard_3_Hanover_NH_US_03755",
  "InstitutionName": "Dartmouth_College_-_PBS",
  "MagneticFieldStrength": 3,
  "Manufacturer": "Siemens",
  "ManufacturersModelName": "Prisma",
  "Modality": "MR",
  "MultibandAccelerationFactor": 4,
  "PercentPhaseFOV": 100,
  "PhaseEncodingDirection": "j-",
  "PhaseEncodingSteps": 96,
  "PhaseResolution": 1,
  "ProcedureStepDescription": "Gobbini_Matteo_1038_hyperface",
  "ProtocolName": "func_run-04_task-visualmemory",
  "PulseSequenceDetails": "%SiemensSeq%_ep2d_bold",
  "ReceiveCoilActiveElements": "HEA;HEP",
  "ReceiveCoilName": "Head_32",
  "ReconMatrixPE": 96,
  "RepetitionTime": 1,
  "ScanOptions": "FS",
  "ScanningSequence": "EP",
  "SequenceName": "_epfid2d1_96",
  "SequenceVariant": "SK",
  "SeriesDescription": "func_run-04_task-visualmemory",
  "SliceTiming": [
    0.735,
    0,
    0.49,
    0.0825,
    0.5725,
    0.1625,
    0.6525,
    0.3275,
    0.8175,
    0.4075,
    0.8975,
    0.245,
    0.735,
    0,
    0.49,
    0.0825,
    0.5725,
    0.1625,
    0.6525,
    0.3275,
    0.8175,
    0.4075,
    0.8975,
    0.245,
    0.735,
    0,
    0.49,
    0.0825,
    0.5725,
    0.1625,
    0.6525,
    0.3275,
    0.8175,
    0.4075,
    0.8975,
    0.245,
    0.735,
    0,
    0.49,
    0.0825,
    0.5725,
    0.1625,
    0.6525,
    0.3275,
    0.8175,
    0.4075,
    0.8975,
    0.245
  ],
  "SoftwareVersions": "syngo_MR_E11",
  "StationName": "AWP66112",
  "TotalReadoutTime": 0.0522511,
  "dcmmeta_affine": [
    [
      -2.4993081092834473,
      -0.0488617904484272,
      0.03273340314626694,
      127.24546813964844
    ],
    [
      -0.04900839179754257,
      2.4994957447052,
      -0.010913345962762833,
      -105.73026275634766
    ],
    [
      0.03251350298523903,
      0.011552009731531143,
      2.4997620582580566,
      -70.54023742675781
    ],
    [
      0.0,
      0.0,
      0.0,
      1.0
    ]
  ],
  "dcmmeta_reorient_transform": [
    [
      0.0,
      -1.0,
      0.0,
      95.0
    ],
    [
      1.0,
      0.0,
      0.0,
      0.0
    ],
    [
      0.0,
      0.0,
      1.0,
      0.0
    ],
    [
      0.0,
      0.0,
      0.0,
      1.0
    ]
  ],
  "dcmmeta_shape": [
    96,
    96,
    48,
    288
  ],
  "dcmmeta_slice_dim": 2,
  "dcmmeta_version": 0.6,
  "global": {
    "const": {
      "AccessionNumber": "A001140",
      "AcquisitionMatrix": [
        96,
        0,
        0,
        96
      ],
      "AngioFlag": "N",
      "BitsAllocated": 16,
      "BitsStored": 12,
      "BodyPartExamined": "BRAIN",
      "Columns": 672,
      "EchoNumbers": 1,
      "EchoTime": 33.0,
      "EchoTrainLength": 96,
      "FlipAngle": 59.0,
      "HighBit": 11,
      "ImageOrientationPatient": [
        0.99972324567735,
        0.01960335709741,
        0.0130054005267,
        -0.0195447168917,
        0.99979830576583,
        -0.0046208039778
      ],
      "ImagePositionPatient": [
        -828.33213857646,
        -865.69103446228,
        -75.47970660893
      ],
      "ImageType": [
        "ORIGINAL",
        "PRIMARY",
        "FMRI",
        "NONE",
        "ND",
        "NORM",
        "MOSAIC"
      ],
      "ImagedNucleus": "1H",
      "ImagingFrequency": 123.252267,
      "InPlanePhaseEncodingDirection": "COL",
      "MRAcquisitionType": "2D",
      "MagneticFieldStrength": 3.0,
      "Manufacturer": "SIEMENS",
      "ManufacturerModelName": "Prisma",
      "Modality": "MR",
      "NumberOfAverages": 1.0,
      "NumberOfPhaseEncodingSteps": 96,
      "PercentPhaseFieldOfView": 100.0,
      "PercentSampling": 100.0,
      "PerformedProcedureStepStartTime": "125856.985000",
      "PhotometricInterpretation": "MONOCHROME2",
      "PixelBandwidth": 2365.0,
      "PixelRepresentation": 0,
      "PixelSpacing": [
        2.5,
        2.5
      ],
      "PositionReferenceIndicator": "",
      "ProtocolName": "func_run-04_task-visualmemory",
      "RepetitionTime": 1000.0,
      "Rows": 672,
      "SAR": 0.07162535388037,
      "SamplesPerPixel": 1,
      "ScanOptions": "FS",
      "ScanningSequence": "EP",
      "SequenceName": "*epfid2d1_96",
      "SequenceVariant": "SK",
      "SeriesDescription": "func_run-04_task-visualmemory",
      "SeriesNumber": 29,
      "SeriesTime": "133331.051000",
      "SliceLocation": -68.405899870991,
      "SliceThickness": 2.5,
      "SmallestImagePixelValue": 0,
      "SoftwareVersions": "syngo MR E11",
      "SpacingBetweenSlices": 2.500000073378,
      "SpecificCharacterSet": "ISO_IR 100",
      "StudyID": "2",
      "StudyTime": "125856.843000",
      "TransmitCoilName": "Body",
      "VariableFlipAngleFlag": "N",
      "WindowCenterWidthExplanation": "Algo1",
      "dBdt": 0.0
    },
    "slices": {}
  },
  "time": {
    "samples": {
      "AcquisitionNumber": [
        1,
        2,
        3,
        4,
        5,
        6,
        7,
        8,
        9,
        10,
        11,
        12,
        13,
        14,
        15,
        16,
        17,
        18,
        19,
        20,
        21,
        22,
        23,
        24,
        25,
        26,
        27,
        28,
        29,
        30,
        31,
        32,
        33,
        34,
        35,
        36,
        37,
        38,
        39,
        40,
        41,
        42,
        43,
        44,
        45,
        46,
        47,
        48,
        49,
        50,
        51,
        52,
        53,
        54,
        55,
        56,
        57,
        58,
        59,
        60,
        61,
        62,
        63,
        64,
        65,
        66,
        67,
        68,
        69,
        70,
        71,
        72,
        73,
        74,
        75,
        76,
        77,
        78,
        79,
        80,
        81,
        82,
        83,
        84,
        85,
        86,
        87,
        88,
        89,
        90,
        91,
        92,
        93,
        94,
        95,
        96,
        97,
        98,
        99,
        100,
        101,
        102,
        103,
        104,
        105,
        106,
        107,
        108,
        109,
        110,
        111,
        112,
        113,
        114,
        115,
        116,
        117,
        118,
        119,
        120,
        121,
        122,
        123,
        124,
        125,
        126,
        127,
        128,
        129,
        130,
        131,
        132,
        133,
        134,
        135,
        136,
        137,
        138,
        139,
        140,
        141,
        142,
        143,
        144,
        145,
        146,
        147,
        148,
        149,
        150,
        151,
        152,
        153,
        154,
        155,
        156,
        157,
        158,
        159,
        160,
        161,
        162,
        163,
        164,
        165,
        166,
        167,
        168,
        169,
        170,
        171,
        172,
        173,
        174,
        175,
        176,
        177,
        178,
        179,
        180,
        181,
        182,
        183,
        184,
        185,
        186,
        187,
        188,
        189,
        190,
        191,
        192,
        193,
        194,
        195,
        196,
        197,
        198,
        199,
        200,
        201,
        202,
        203,
        204,
        205,
        206,
        207,
        208,
        209,
        210,
        211,
        212,
        213,
        214,
        215,
        216,
        217,
        218,
        219,
        220,
        221,
        222,
        223,
        224,
        225,
        226,
        227,
        228,
        229,
        230,
        231,
        232,
        233,
        234,
        235,
        236,
        237,
        238,
        239,
        240,
        241,
        242,
        243,
        244,
        245,
        246,
        247,
        248,
        249,
        250,
        251,
        252,
        253,
        254,
        255,
        256,
        257,
        258,
        259,
        260,
        261,
        262,
        263,
        264,
        265,
        266,
        267,
        268,
        269,
        270,
        271,
        272,
        273,
        274,
        275,
        276,
        277,
        278,
        279,
        280,
        281,
        282,
        283,
        284,
        285,
        286,
        287,
        288
      ],
      "AcquisitionTime": [
        "133330.087500",
        "133331.087500",
        "133332.087500",
        "133333.087500",
        "133334.087500",
        "133335.087500",
        "133336.087500",
        "133337.087500",
        "133338.087500",
        "133339.087500",
        "133340.087500",
        "133341.087500",
        "133342.087500",
        "133343.087500",
        "133344.087500",
        "133345.087500",
        "133346.087500",
        "133347.087500",
        "133348.087500",
        "133349.087500",
        "133350.087500",
        "133351.087500",
        "133352.087500",
        "133353.087500",
        "133354.087500",
        "133355.087500",
        "133356.087500",
        "133357.087500",
        "133358.087500",
        "133359.087500",
        "133400.087500",
        "133401.087500",
        "133402.087500",
        "133403.087500",
        "133404.087500",
        "133405.087500",
        "133406.087500",
        "133407.087500",
        "133408.087500",
        "133409.087500",
        "133410.087500",
        "133411.087500",
        "133412.087500",
        "133413.087500",
        "133414.087500",
        "133415.087500",
        "133416.087500",
        "133417.087500",
        "133418.087500",
        "133419.087500",
        "133420.087500",
        "133421.087500",
        "133422.087500",
        "133423.087500",
        "133424.087500",
        "133425.087500",
        "133426.087500",
        "133427.087500",
        "133428.087500",
        "133429.087500",
        "133430.087500",
        "133431.087500",
        "133432.087500",
        "133433.087500",
        "133434.087500",
        "133435.087500",
        "133436.087500",
        "133437.087500",
        "133438.087500",
        "133439.087500",
        "133440.087500",
        "133441.087500",
        "133442.087500",
        "133443.087500",
        "133444.087500",
        "133445.087500",
        "133446.087500",
        "133447.087500",
        "133448.087500",
        "133449.087500",
        "133450.087500",
        "133451.087500",
        "133452.087500",
        "133453.087500",
        "133454.087500",
        "133455.087500",
        "133456.087500",
        "133457.087500",
        "133458.087500",
        "133459.087500",
        "133500.087500",
        "133501.087500",
        "133502.087500",
        "133503.087500",
        "133504.087500",
        "133505.087500",
        "133506.087500",
        "133507.087500",
        "133508.087500",
        "133509.087500",
        "133510.087500",
        "133511.087500",
        "133512.087500",
        "133513.087500",
        "133514.087500",
        "133515.087500",
        "133516.087500",
        "133517.087500",
        "133518.087500",
        "133519.087500",
        "133520.087500",
        "133521.087500",
        "133522.087500",
        "133523.087500",
        "133524.087500",
        "133525.087500",
        "133526.087500",
        "133527.087500",
        "133528.087500",
        "133529.087500",
        "133530.087500",
        "133531.087500",
        "133532.087500",
        "133533.087500",
        "133534.087500",
        "133535.087500",
        "133536.087500",
        "133537.087500",
        "133538.087500",
        "133539.087500",
        "133540.087500",
        "133541.087500",
        "133542.087500",
        "133543.087500",
        "133544.087500",
        "133545.087500",
        "133546.087500",
        "133547.087500",
        "133548.087500",
        "133549.087500",
        "133550.087500",
        "133551.087500",
        "133552.087500",
        "133553.087500",
        "133554.087500",
        "133555.087500",
        "133556.087500",
        "133557.087500",
        "133558.087500",
        "133559.087500",
        "133600.087500",
        "133601.087500",
        "133602.087500",
        "133603.087500",
        "133604.087500",
        "133605.087500",
        "133606.087500",
        "133607.087500",
        "133608.087500",
        "133609.087500",
        "133610.087500",
        "133611.087500",
        "133612.087500",
        "133613.087500",
        "133614.087500",
        "133615.087500",
        "133616.087500",
        "133617.087500",
        "133618.087500",
        "133619.087500",
        "133620.087500",
        "133621.087500",
        "133622.087500",
        "133623.087500",
        "133624.087500",
        "133625.087500",
        "133626.087500",
        "133627.087500",
        "133628.087500",
        "133629.087500",
        "133630.087500",
        "133631.087500",
        "133632.087500",
        "133633.087500",
        "133634.087500",
        "133635.087500",
        "133636.087500",
        "133637.087500",
        "133638.087500",
        "133639.087500",
        "133640.087500",
        "133641.087500",
        "133642.087500",
        "133643.087500",
        "133644.087500",
        "133645.087500",
        "133646.087500",
        "133647.087500",
        "133648.087500",
        "133649.087500",
        "133650.087500",
        "133651.087500",
        "133652.087500",
        "133653.087500",
        "133654.087500",
        "133655.087500",
        "133656.087500",
        "133657.087500",
        "133658.087500",
        "133659.087500",
        "133700.087500",
        "133701.087500",
        "133702.087500",
        "133703.087500",
        "133704.087500",
        "133705.087500",
        "133706.087500",
        "133707.087500",
        "133708.087500",
        "133709.087500",
        "133710.087500",
        "133711.087500",
        "133712.087500",
        "133713.087500",
        "133714.087500",
        "133715.087500",
        "133716.087500",
        "133717.087500",
        "133718.087500",
        "133719.087500",
        "133720.087500",
        "133721.087500",
        "133722.087500",
        "133723.087500",
        "133724.087500",
        "133725.087500",
        "133726.087500",
        "133727.087500",
        "133728.087500",
        "133729.087500",
        "133730.087500",
        "133731.087500",
        "133732.087500",
        "133733.087500",
        "133734.087500",
        "133735.087500",
        "133736.087500",
        "133737.087500",
        "133738.087500",
        "133739.087500",
        "133740.087500",
        "133741.087500",
        "133742.087500",
        "133743.087500",
        "133744.087500",
        "133745.087500",
        "133746.087500",
        "133747.087500",
        "133748.087500",
        "133749.087500",
        "133750.087500",
        "133751.087500",
        "133752.087500",
        "133753.087500",
        "133754.087500",
        "133755.087500",
        "133756.087500",
        "133757.087500",
        "133758.087500",
        "133759.087500",
        "133800.087500",
        "133801.087500",
        "133802.087500",
        "133803.087500",
        "133804.087500",
        "133805.087500",
        "133806.087500",
        "133807.087500",
        "133808.087500",
        "133809.087500",
        "133810.087500",
        "133811.087500",
        "133812.087500",
        "133813.087500",
        "133814.087500",
        "133815.087500",
        "133816.087500",
        "133817.087500"
      ],
      "ContentTime": [
        "133331.055000",
        "133331.871000",
        "133332.913000",
        "133333.871000",
        "133334.875000",
        "133335.866000",
        "133336.872000",
        "133337.879000",
        "133338.861000",
        "133339.865000",
        "133340.853000",
        "133341.858000",
        "133342.864000",
        "133343.874000",
        "133344.883000",
        "133345.858000",
        "133346.872000",
        "133347.929000",
        "133348.876000",
        "133349.853000",
        "133350.875000",
        "133351.884000",
        "133352.902000",
        "133353.903000",
        "133354.870000",
        "133355.936000",
        "133356.863000",
        "133357.866000",
        "133358.882000",
        "133359.885000",
        "133400.878000",
        "133401.880000",
        "133402.926000",
        "133403.897000",
        "133404.872000",
        "133405.866000",
        "133406.849000",
        "133407.867000",
        "133408.882000",
        "133409.891000",
        "133410.862000",
        "133411.874000",
        "133412.869000",
        "133413.870000",
        "133414.879000",
        "133415.854000",
        "133416.859000",
        "133417.892000",
        "133418.851000",
        "133419.879000",
        "133420.878000",
        "133421.833000",
        "133422.868000",
        "133423.866000",
        "133424.861000",
        "133425.866000",
        "133426.875000",
        "133427.882000",
        "133428.851000",
        "133429.876000",
        "133430.857000",
        "133431.867000",
        "133432.877000",
        "133433.876000",
        "133434.851000",
        "133435.863000",
        "133436.867000",
        "133437.868000",
        "133438.854000",
        "133439.873000",
        "133440.875000",
        "133441.861000",
        "133442.853000",
        "133443.832000",
        "133444.870000",
        "133445.865000",
        "133446.899000",
        "133447.850000",
        "133448.877000",
        "133449.857000",
        "133450.886000",
        "133451.864000",
        "133452.871000",
        "133453.852000",
        "133454.859000",
        "133455.887000",
        "133456.859000",
        "133457.896000",
        "133458.889000",
        "133459.858000",
        "133500.849000",
        "133501.890000",
        "133502.879000",
        "133503.880000",
        "133504.861000",
        "133505.931000",
        "133506.853000",
        "133507.870000",
        "133508.865000",
        "133509.862000",
        "133510.914000",
        "133511.881000",
        "133512.882000",
        "133513.914000",
        "133514.882000",
        "133515.869000",
        "133516.886000",
        "133517.880000",
        "133518.885000",
        "133519.863000",
        "133520.878000",
        "133521.921000",
        "133522.875000",
        "133523.890000",
        "133524.868000",
        "133525.920000",
        "133526.864000",
        "133527.903000",
        "133528.882000",
        "133529.868000",
        "133530.868000",
        "133531.868000",
        "133532.872000",
        "133533.851000",
        "133534.864000",
        "133535.866000",
        "133536.879000",
        "133537.876000",
        "133538.879000",
        "133539.896000",
        "133540.884000",
        "133541.879000",
        "133542.871000",
        "133543.877000",
        "133544.865000",
        "133545.885000",
        "133546.873000",
        "133547.885000",
        "133548.871000",
        "133549.859000",
        "133550.874000",
        "133551.879000",
        "133552.866000",
        "133553.956000",
        "133554.882000",
        "133555.874000",
        "133556.920000",
        "133557.912000",
        "133558.883000",
        "133559.872000",
        "133600.886000",
        "133601.888000",
        "133602.882000",
        "133603.899000",
        "133604.871000",
        "133605.858000",
        "133606.877000",
        "133607.868000",
        "133608.879000",
        "133609.888000",
        "133610.871000",
        "133611.870000",
        "133612.877000",
        "133613.881000",
        "133614.869000",
        "133615.871000",
        "133616.870000",
        "133617.880000",
        "133618.878000",
        "133619.923000",
        "133620.935000",
        "133621.864000",
        "133622.918000",
        "133623.902000",
        "133624.867000",
        "133625.857000",
        "133626.863000",
        "133627.903000",
        "133628.868000",
        "133629.898000",
        "133630.863000",
        "133631.904000",
        "133632.864000",
        "133633.876000",
        "133634.862000",
        "133635.917000",
        "133636.860000",
        "133637.865000",
        "133638.878000",
        "133639.875000",
        "133640.865000",
        "133641.884000",
        "133642.870000",
        "133643.879000",
        "133644.898000",
        "133645.889000",
        "133646.864000",
        "133647.884000",
        "133648.889000",
        "133649.859000",
        "133650.872000",
        "133651.869000",
        "133652.878000",
        "133653.873000",
        "133654.861000",
        "133655.930000",
        "133656.895000",
        "133657.950000",
        "133658.881000",
        "133659.880000",
        "133700.882000",
        "133701.848000",
        "133702.929000",
        "133703.873000",
        "133704.864000",
        "133705.881000",
        "133706.880000",
        "133707.893000",
        "133708.896000",
        "133709.855000",
        "133710.918000",
        "133711.909000",
        "133712.886000",
        "133713.859000",
        "133714.886000",
        "133715.869000",
        "133716.867000",
        "133717.870000",
        "133718.875000",
        "133719.858000",
        "133720.880000",
        "133721.936000",
        "133722.876000",
        "133723.842000",
        "133724.879000",
        "133725.878000",
        "133726.862000",
        "133727.860000",
        "133728.850000",
        "133729.871000",
        "133730.882000",
        "133731.875000",
        "133732.922000",
        "133733.885000",
        "133734.867000",
        "133735.873000",
        "133736.883000",
        "133737.866000",
        "133738.886000",
        "133739.862000",
        "133740.877000",
        "133741.907000",
        "133742.889000",
        "133743.900000",
        "133744.876000",
        "133745.871000",
        "133746.861000",
        "133747.868000",
        "133748.869000",
        "133749.876000",
        "133750.890000",
        "133751.872000",
        "133752.865000",
        "133753.871000",
        "133754.894000",
        "133755.867000",
        "133756.905000",
        "133757.863000",
        "133758.887000",
        "133759.879000",
        "133800.916000",
        "133801.885000",
        "133802.862000",
        "133803.939000",
        "133804.885000",
        "133805.976000",
        "133806.848000",
        "133807.870000",
        "133808.878000",
        "133809.881000",
        "133810.880000",
        "133811.900000",
        "133812.864000",
        "133813.870000",
        "133814.873000",
        "133815.862000",
        "133816.877000",
        "133817.912000"
      ],
      "InstanceCreationTime": [
        "133331.055000",
        "133331.871000",
        "133332.913000",
        "133333.871000",
        "133334.875000",
        "133335.866000",
        "133336.872000",
        "133337.879000",
        "133338.861000",
        "133339.865000",
        "133340.853000",
        "133341.858000",
        "133342.864000",
        "133343.874000",
        "133344.883000",
        "133345.858000",
        "133346.872000",
        "133347.929000",
        "133348.876000",
        "133349.853000",
        "133350.875000",
        "133351.884000",
        "133352.902000",
        "133353.903000",
        "133354.870000",
        "133355.936000",
        "133356.863000",
        "133357.866000",
        "133358.882000",
        "133359.885000",
        "133400.878000",
        "133401.880000",
        "133402.926000",
        "133403.897000",
        "133404.872000",
        "133405.866000",
        "133406.849000",
        "133407.867000",
        "133408.882000",
        "133409.891000",
        "133410.862000",
        "133411.874000",
        "133412.869000",
        "133413.870000",
        "133414.879000",
        "133415.854000",
        "133416.859000",
        "133417.892000",
        "133418.851000",
        "133419.879000",
        "133420.878000",
        "133421.833000",
        "133422.868000",
        "133423.866000",
        "133424.861000",
        "133425.866000",
        "133426.875000",
        "133427.882000",
        "133428.851000",
        "133429.876000",
        "133430.857000",
        "133431.867000",
        "133432.877000",
        "133433.876000",
        "133434.851000",
        "133435.863000",
        "133436.867000",
        "133437.868000",
        "133438.854000",
        "133439.873000",
        "133440.875000",
        "133441.861000",
        "133442.853000",
        "133443.832000",
        "133444.870000",
        "133445.865000",
        "133446.899000",
        "133447.850000",
        "133448.877000",
        "133449.857000",
        "133450.886000",
        "133451.864000",
        "133452.871000",
        "133453.852000",
        "133454.859000",
        "133455.887000",
        "133456.859000",
        "133457.896000",
        "133458.889000",
        "133459.858000",
        "133500.849000",
        "133501.890000",
        "133502.879000",
        "133503.880000",
        "133504.861000",
        "133505.931000",
        "133506.853000",
        "133507.870000",
        "133508.865000",
        "133509.862000",
        "133510.914000",
        "133511.881000",
        "133512.882000",
        "133513.914000",
        "133514.882000",
        "133515.869000",
        "133516.886000",
        "133517.880000",
        "133518.885000",
        "133519.863000",
        "133520.878000",
        "133521.921000",
        "133522.875000",
        "133523.890000",
        "133524.868000",
        "133525.920000",
        "133526.864000",
        "133527.903000",
        "133528.882000",
        "133529.868000",
        "133530.868000",
        "133531.868000",
        "133532.872000",
        "133533.851000",
        "133534.864000",
        "133535.866000",
        "133536.879000",
        "133537.876000",
        "133538.879000",
        "133539.896000",
        "133540.884000",
        "133541.879000",
        "133542.871000",
        "133543.877000",
        "133544.865000",
        "133545.885000",
        "133546.873000",
        "133547.885000",
        "133548.871000",
        "133549.859000",
        "133550.874000",
        "133551.879000",
        "133552.866000",
        "133553.956000",
        "133554.882000",
        "133555.874000",
        "133556.920000",
        "133557.912000",
        "133558.883000",
        "133559.872000",
        "133600.886000",
        "133601.888000",
        "133602.882000",
        "133603.899000",
        "133604.871000",
        "133605.858000",
        "133606.877000",
        "133607.868000",
        "133608.879000",
        "133609.888000",
        "133610.871000",
        "133611.870000",
        "133612.877000",
        "133613.881000",
        "133614.869000",
        "133615.871000",
        "133616.870000",
        "133617.880000",
        "133618.878000",
        "133619.923000",
        "133620.935000",
        "133621.864000",
        "133622.918000",
        "133623.902000",
        "133624.867000",
        "133625.857000",
        "133626.863000",
        "133627.903000",
        "133628.868000",
        "133629.898000",
        "133630.863000",
        "133631.904000",
        "133632.864000",
        "133633.876000",
        "133634.862000",
        "133635.917000",
        "133636.860000",
        "133637.865000",
        "133638.878000",
        "133639.875000",
        "133640.865000",
        "133641.884000",
        "133642.870000",
        "133643.879000",
        "133644.898000",
        "133645.889000",
        "133646.864000",
        "133647.884000",
        "133648.889000",
        "133649.859000",
        "133650.872000",
        "133651.869000",
        "133652.878000",
        "133653.873000",
        "133654.861000",
        "133655.930000",
        "133656.895000",
        "133657.950000",
        "133658.881000",
        "133659.880000",
        "133700.882000",
        "133701.848000",
        "133702.929000",
        "133703.873000",
        "133704.864000",
        "133705.881000",
        "133706.880000",
        "133707.893000",
        "133708.896000",
        "133709.855000",
        "133710.918000",
        "133711.909000",
        "133712.886000",
        "133713.859000",
        "133714.886000",
        "133715.869000",
        "133716.867000",
        "133717.870000",
        "133718.875000",
        "133719.858000",
        "133720.880000",
        "133721.936000",
        "133722.876000",
        "133723.842000",
        "133724.879000",
        "133725.878000",
        "133726.862000",
        "133727.860000",
        "133728.850000",
        "133729.871000",
        "133730.882000",
        "133731.875000",
        "133732.922000",
        "133733.885000",
        "133734.867000",
        "133735.873000",
        "133736.883000",
        "133737.866000",
        "133738.886000",
        "133739.862000",
        "133740.877000",
        "133741.907000",
        "133742.889000",
        "133743.900000",
        "133744.876000",
