{
  "AcquisitionMatrixPE": 96,
  "AcquisitionNumber": 1,
  "BandwidthPerPixelPhaseEncode": 18.939,
  "BaseResolution": 96,
  "BodyPartExamined": "BRAIN",
  "ConsistencyInfo": "N4_VE11C_LATEST_20160120",
  "ConversionSoftware": "dcm2niix",
  "ConversionSoftwareVersion": "v1.0.20171215 (OpenJPEG build) GCC6.3.0",
  "DerivedVendorReportedEchoSpacing": 0.000550011,
  "DeviceSerialNumber": "66112",
  "DwellTime": 2.2e-06,
  "EchoTime": 0.033,
  "EchoTrainLength": 96,
  "EffectiveEchoSpacing": 0.000550011,
  "FlipAngle": 59,
  "ImageOrientationPatientDICOM": [
    0.999528,
    -0.00279944,
    0.0306045,
    0.00209342,
    0.999731,
    0.0230769
  ],
  "ImageType": [
    "ORIGINAL",
    "PRIMARY",
    "FMRI",
    "NONE",
    "ND",
    "NORM",
    "MOSAIC"
  ],
  "InPlanePhaseEncodingDirectionDICOM": "COL",
  "InstitutionAddress": "Maynard_3_Hanover_NH_US_03755",
  "InstitutionName": "Dartmouth_College_-_PBS",
  "InstitutionalDepartmentName": "Department",
  "MRAcquisitionType": "2D",
  "MagneticFieldStrength": 3,
  "Manufacturer": "Siemens",
  "ManufacturersModelName": "Prisma",
  "Modality": "MR",
  "MultibandAccelerationFactor": 4,
  "PartialFourier": 1,
  "PatientPosition": "HFS",
  "PercentPhaseFOV": 100,
  "PhaseEncodingDirection": "j-",
  "PhaseEncodingSteps": 96,
  "PhaseResolution": 1,
  "PixelBandwidth": 2365,
  "ProcedureStepDescription": "Gobbini_Matteo_1038_hyperface",
  "ProtocolName": "func_run-07_task-visualmemory",
  "PulseSequenceDetails": "%SiemensSeq%_ep2d_bold",
  "ReceiveCoilActiveElements": "HEA;HEP",
  "ReceiveCoilName": "Head_32",
  "ReconMatrixPE": 96,
  "RepetitionTime": 1,
  "SAR": 0.0412536,
  "ScanOptions": "FS",
  "ScanningSequence": "EP",
  "SequenceName": "_epfid2d1_96",
  "SequenceVariant": "SK",
  "SeriesDescription": "func_run-07_task-visualmemory",
  "SeriesNumber": 49,
  "ShimSetting": [
    4154,
    -7719,
    -7468,
    313,
    -11,
    94,
    -55,
    63
  ],
  "SliceThickness": 2.5,
  "SliceTiming": [
    0.735,
    0,
    0.49,
    0.0825,
    0.5725,
    0.1625,
    0.6525,
    0.3275,
    0.8175,
    0.4075,
    0.8975,
    0.245,
    0.735,
    0,
    0.49,
    0.0825,
    0.5725,
    0.1625,
    0.6525,
    0.3275,
    0.8175,
    0.4075,
    0.8975,
    0.245,
    0.735,
    0,
    0.49,
    0.0825,
    0.5725,
    0.1625,
    0.6525,
    0.3275,
    0.8175,
    0.4075,
    0.8975,
    0.245,
    0.735,
    0,
    0.49,
    0.0825,
    0.5725,
    0.1625,
    0.6525,
    0.3275,
    0.8175,
    0.4075,
    0.8975,
    0.245
  ],
  "SoftwareVersions": "syngo_MR_E11",
  "SpacingBetweenSlices": 2.5,
  "StationName": "AWP66112",
  "TotalReadoutTime": 0.0522511,
  "TxRefAmp": 228.465,
  "time": {
    "samples": {
      "AcquisitionNumber": [
        1,
        2,
        3,
        4,
        5,
        6,
        7,
        8,
        9,
        10,
        11,
        12,
        13,
        14,
        15,
        16,
        17,
        18,
        19,
        20,
        21,
        22,
        23,
        24,
        25,
        26,
        27,
        28,
        29,
        30,
        31,
        32,
        33,
        34,
        35,
        36,
        37,
        38,
        39,
        40,
        41,
        42,
        43,
        44,
        45,
        46,
        47,
        48,
        49,
        50,
        51,
        52,
        53,
        54,
        55,
        56,
        57,
        58,
        59,
        60,
        61,
        62,
        63,
        64,
        65,
        66,
        67,
        68,
        69,
        70,
        71,
        72,
        73,
        74,
        75,
        76,
        77,
        78,
        79,
        80,
        81,
        82,
        83,
        84,
        85,
        86,
        87,
        88,
        89,
        90,
        91,
        92,
        93,
        94,
        95,
        96,
        97,
        98,
        99,
        100,
        101,
        102,
        103,
        104,
        105,
        106,
        107,
        108,
        109,
        110,
        111,
        112,
        113,
        114,
        115,
        116,
        117,
        118,
        119,
        120,
        121,
        122,
        123,
        124,
        125,
        126,
        127,
        128,
        129,
        130,
        131,
        132,
        133,
        134,
        135,
        136,
        137,
        138,
        139,
        140,
        141,
        142,
        143,
        144,
        145,
        146,
        147,
        148,
        149,
        150,
        151,
        152,
        153,
        154,
        155,
        156,
        157,
        158,
        159,
        160,
        161,
        162,
        163,
        164,
        165,
        166,
        167,
        168,
        169,
        170,
        171,
        172,
        173,
        174,
        175,
        176,
        177,
        178,
        179,
        180,
        181,
        182,
        183,
        184,
        185,
        186,
        187,
        188,
        189,
        190,
        191,
        192,
        193,
        194,
        195,
        196,
        197,
        198,
        199,
        200,
        201,
        202,
        203,
        204,
        205,
        206,
        207,
        208,
        209,
        210,
        211,
        212,
        213,
        214,
        215,
        216,
        217,
        218,
        219,
        220,
        221,
        222,
        223,
        224,
        225,
        226,
        227,
        228,
        229,
        230,
        231,
        232,
        233,
        234,
        235,
        236,
        237,
        238,
        239,
        240,
        241,
        242,
        243,
        244,
        245,
        246,
        247,
        248,
        249,
        250,
        251,
        252,
        253,
        254,
        255,
        256,
        257,
        258,
        259,
        260,
        261,
        262,
        263,
        264,
        265,
        266,
        267,
        268,
        269,
        270,
        271,
        272,
        273,
        274,
        275,
        276,
        277,
        278,
        279,
        280,
        281,
        282,
        283,
        284,
        285,
        286,
        287,
        288
      ],
      "AcquisitionTime": [
        "103924.680000",
        "103925.680000",
        "103926.680000",
        "103927.680000",
        "103928.680000",
        "103929.680000",
        "103930.680000",
        "103931.680000",
        "103932.680000",
        "103933.680000",
        "103934.680000",
        "103935.680000",
        "103936.680000",
        "103937.680000",
        "103938.680000",
        "103939.680000",
        "103940.680000",
        "103941.680000",
        "103942.680000",
        "103943.680000",
        "103944.680000",
        "103945.680000",
        "103946.680000",
        "103947.680000",
        "103948.680000",
        "103949.680000",
        "103950.680000",
        "103951.680000",
        "103952.680000",
        "103953.680000",
        "103954.680000",
        "103955.680000",
        "103956.680000",
        "103957.680000",
        "103958.680000",
        "103959.680000",
        "104000.680000",
        "104001.680000",
        "104002.680000",
        "104003.680000",
        "104004.680000",
        "104005.680000",
        "104006.680000",
        "104007.680000",
        "104008.680000",
        "104009.680000",
        "104010.680000",
        "104011.680000",
        "104012.680000",
        "104013.680000",
        "104014.680000",
        "104015.680000",
        "104016.680000",
        "104017.680000",
        "104018.680000",
        "104019.680000",
        "104020.680000",
        "104021.680000",
        "104022.680000",
        "104023.680000",
        "104024.680000",
        "104025.680000",
        "104026.680000",
        "104027.680000",
        "104028.680000",
        "104029.680000",
        "104030.680000",
        "104031.680000",
        "104032.680000",
        "104033.680000",
        "104034.680000",
        "104035.680000",
        "104036.680000",
        "104037.680000",
        "104038.680000",
        "104039.680000",
        "104040.680000",
        "104041.680000",
        "104042.680000",
        "104043.680000",
        "104044.680000",
        "104045.680000",
        "104046.680000",
        "104047.680000",
        "104048.680000",
        "104049.680000",
        "104050.680000",
        "104051.680000",
        "104052.680000",
        "104053.680000",
        "104054.680000",
        "104055.680000",
        "104056.680000",
        "104057.680000",
        "104058.680000",
        "104059.680000",
        "104100.680000",
        "104101.680000",
        "104102.680000",
        "104103.680000",
        "104104.680000",
        "104105.680000",
        "104106.680000",
        "104107.680000",
        "104108.680000",
        "104109.680000",
        "104110.680000",
        "104111.680000",
        "104112.680000",
        "104113.680000",
        "104114.680000",
        "104115.680000",
        "104116.680000",
        "104117.680000",
        "104118.680000",
        "104119.680000",
        "104120.680000",
        "104121.680000",
        "104122.680000",
        "104123.680000",
        "104124.680000",
        "104125.680000",
        "104126.680000",
        "104127.680000",
        "104128.680000",
        "104129.680000",
        "104130.680000",
        "104131.680000",
        "104132.680000",
        "104133.680000",
        "104134.680000",
        "104135.680000",
        "104136.680000",
        "104137.680000",
        "104138.680000",
        "104139.680000",
        "104140.680000",
        "104141.680000",
        "104142.680000",
        "104143.680000",
        "104144.680000",
        "104145.680000",
        "104146.680000",
        "104147.680000",
        "104148.680000",
        "104149.680000",
        "104150.680000",
        "104151.680000",
        "104152.680000",
        "104153.680000",
        "104154.680000",
        "104155.680000",
        "104156.680000",
        "104157.680000",
        "104158.680000",
        "104159.680000",
        "104200.680000",
        "104201.680000",
        "104202.680000",
        "104203.680000",
        "104204.680000",
        "104205.680000",
        "104206.680000",
        "104207.680000",
        "104208.680000",
        "104209.680000",
        "104210.680000",
        "104211.680000",
        "104212.680000",
        "104213.680000",
        "104214.680000",
        "104215.680000",
        "104216.680000",
        "104217.680000",
        "104218.680000",
        "104219.680000",
        "104220.680000",
        "104221.680000",
        "104222.680000",
        "104223.680000",
        "104224.680000",
        "104225.680000",
        "104226.680000",
        "104227.680000",
        "104228.680000",
        "104229.680000",
        "104230.680000",
        "104231.680000",
        "104232.680000",
        "104233.680000",
        "104234.680000",
        "104235.680000",
        "104236.680000",
        "104237.680000",
        "104238.680000",
        "104239.680000",
        "104240.680000",
        "104241.680000",
        "104242.680000",
        "104243.680000",
        "104244.680000",
        "104245.680000",
        "104246.680000",
        "104247.680000",
        "104248.680000",
        "104249.680000",
        "104250.680000",
        "104251.680000",
        "104252.680000",
        "104253.680000",
        "104254.680000",
        "104255.680000",
        "104256.680000",
        "104257.680000",
        "104258.680000",
        "104259.680000",
        "104300.680000",
        "104301.680000",
        "104302.680000",
        "104303.680000",
        "104304.680000",
        "104305.680000",
        "104306.680000",
        "104307.680000",
        "104308.680000",
        "104309.680000",
        "104310.680000",
        "104311.680000",
        "104312.680000",
        "104313.680000",
        "104314.680000",
        "104315.680000",
        "104316.680000",
        "104317.680000",
        "104318.680000",
        "104319.680000",
        "104320.680000",
        "104321.680000",
        "104322.680000",
        "104323.680000",
        "104324.680000",
        "104325.680000",
        "104326.680000",
        "104327.680000",
        "104328.680000",
        "104329.680000",
        "104330.680000",
        "104331.680000",
        "104332.680000",
        "104333.680000",
        "104334.680000",
        "104335.680000",
        "104336.680000",
        "104337.680000",
        "104338.680000",
        "104339.680000",
        "104340.680000",
        "104341.680000",
        "104342.680000",
        "104343.680000",
        "104344.680000",
        "104345.680000",
        "104346.680000",
        "104347.680000",
        "104348.680000",
        "104349.680000",
        "104350.680000",
        "104351.680000",
        "104352.680000",
        "104353.680000",
        "104354.680000",
        "104355.680000",
        "104356.680000",
        "104357.680000",
        "104358.680000",
        "104359.680000",
        "104400.680000",
        "104401.680000",
        "104402.680000",
        "104403.680000",
        "104404.680000",
        "104405.680000",
        "104406.680000",
        "104407.680000",
        "104408.680000",
        "104409.680000",
        "104410.680000",
        "104411.680000"
      ],
      "ContentTime": [
        "103925.641000",
        "103926.493000",
        "103927.477000",
        "103928.487000",
        "103929.536000",
        "103930.503000",
        "103931.510000",
        "103932.501000",
        "103933.483000",
        "103934.510000",
        "103935.503000",
        "103936.493000",
        "103937.483000",
        "103938.490000",
        "103939.481000",
        "103940.485000",
        "103941.471000",
        "103942.543000",
        "103943.467000",
        "103944.490000",
        "103945.529000",
        "103946.473000",
        "103947.480000",
        "103948.488000",
        "103949.491000",
        "103950.472000",
        "103951.483000",
        "103952.467000",
        "103953.492000",
        "103954.559000",
        "103955.497000",
        "103956.517000",
        "103957.464000",
        "103958.526000",
        "103959.476000",
        "104000.512000",
        "104001.495000",
        "104002.476000",
        "104003.486000",
        "104004.474000",
        "104005.490000",
        "104006.526000",
        "104007.484000",
        "104008.526000",
        "104009.499000",
        "104010.532000",
        "104011.480000",
        "104012.501000",
        "104013.477000",
        "104014.496000",
        "104015.470000",
        "104016.516000",
        "104017.482000",
        "104018.513000",
        "104019.503000",
        "104020.464000",
        "104021.455000",
        "104022.544000",
        "104023.516000",
        "104024.479000",
        "104025.526000",
        "104026.479000",
        "104027.467000",
        "104028.475000",
        "104029.479000",
        "104030.496000",
        "104031.513000",
        "104032.532000",
        "104033.468000",
        "104034.469000",
        "104035.476000",
        "104036.480000",
        "104037.469000",
        "104038.515000",
        "104039.495000",
        "104040.484000",
        "104041.491000",
        "104042.468000",
        "104043.479000",
        "104044.484000",
        "104045.465000",
        "104046.483000",
        "104047.480000",
        "104048.475000",
        "104049.533000",
        "104050.496000",
        "104051.491000",
        "104052.505000",
        "104053.488000",
        "104054.469000",
        "104055.494000",
        "104056.544000",
        "104057.526000",
        "104058.519000",
        "104059.483000",
        "104100.516000",
        "104101.534000",
        "104102.537000",
        "104103.542000",
        "104104.487000",
        "104105.505000",
        "104106.504000",
        "104107.483000",
        "104108.494000",
        "104109.505000",
        "104110.509000",
        "104111.487000",
        "104112.487000",
        "104113.486000",
        "104114.505000",
        "104115.494000",
        "104116.474000",
        "104117.453000",
        "104118.501000",
        "104119.482000",
        "104120.498000",
        "104121.501000",
        "104122.486000",
        "104123.509000",
        "104124.515000",
        "104125.486000",
        "104126.511000",
        "104127.467000",
        "104128.499000",
        "104129.498000",
        "104130.495000",
        "104131.510000",
        "104132.483000",
        "104133.558000",
        "104134.488000",
        "104135.509000",
        "104136.502000",
        "104137.512000",
        "104138.488000",
        "104139.502000",
        "104140.479000",
        "104141.528000",
        "104142.494000",
        "104143.491000",
        "104144.541000",
        "104145.498000",
        "104146.538000",
        "104147.583000",
        "104148.479000",
        "104149.500000",
        "104150.500000",
        "104151.509000",
        "104152.479000",
        "104153.477000",
        "104154.483000",
        "104155.496000",
        "104156.479000",
        "104157.487000",
        "104158.486000",
        "104159.509000",
        "104200.518000",
        "104201.531000",
        "104202.490000",
        "104203.492000",
        "104204.481000",
        "104205.520000",
        "104206.506000",
        "104207.497000",
        "104208.452000",
        "104209.488000",
        "104210.486000",
        "104211.482000",
        "104212.472000",
        "104213.484000",
        "104214.480000",
        "104215.484000",
        "104216.498000",
        "104217.511000",
        "104218.506000",
        "104219.529000",
        "104220.480000",
        "104221.491000",
        "104222.497000",
        "104223.483000",
        "104224.507000",
        "104225.496000",
        "104226.525000",
        "104227.556000",
        "104228.567000",
        "104229.558000",
        "104230.481000",
        "104231.496000",
        "104232.480000",
        "104233.521000",
        "104234.492000",
        "104235.492000",
        "104236.478000",
        "104237.499000",
        "104238.489000",
        "104239.485000",
        "104240.533000",
        "104241.535000",
        "104242.495000",
        "104243.490000",
        "104244.483000",
        "104245.484000",
        "104246.485000",
        "104247.480000",
        "104248.471000",
        "104249.509000",
        "104250.509000",
        "104251.499000",
        "104252.497000",
        "104253.559000",
        "104254.495000",
        "104255.540000",
        "104256.499000",
        "104257.482000",
        "104258.496000",
        "104259.507000",
        "104300.506000",
        "104301.497000",
        "104302.517000",
        "104303.541000",
        "104304.491000",
        "104305.512000",
        "104306.496000",
        "104307.512000",
        "104308.481000",
        "104309.503000",
        "104310.475000",
        "104311.514000",
        "104312.557000",
        "104313.484000",
        "104314.477000",
        "104315.498000",
        "104316.484000",
        "104317.507000",
        "104318.519000",
        "104319.485000",
        "104320.524000",
        "104321.474000",
        "104322.505000",
        "104323.560000",
        "104324.496000",
        "104325.494000",
        "104326.471000",
        "104327.505000",
        "104328.491000",
        "104329.489000",
        "104330.481000",
        "104331.515000",
        "104332.475000",
        "104333.515000",
        "104334.496000",
        "104335.480000",
        "104336.510000",
        "104337.453000",
        "104338.512000",
        "104339.497000",
        "104340.495000",
        "104341.474000",
        "104342.492000",
        "104343.492000",
        "104344.479000",
        "104345.495000",
        "104346.499000",
        "104347.483000",
        "104348.471000",
        "104349.489000",
        "104350.486000",
        "104351.489000",
        "104352.444000",
        "104353.497000",
        "104354.482000",
        "104355.499000",
        "104356.481000",
        "104357.498000",
        "104358.482000",
        "104359.543000",
        "104400.489000",
        "104401.514000",
        "104402.488000",
        "104403.492000",
        "104404.557000",
        "104405.512000",
        "104406.501000",
        "104407.483000",
        "104408.518000",
        "104409.495000",
        "104410.483000",
        "104411.498000",
        "104412.502000"
      ],
      "InstanceCreationTime": [
        "103925.641000",
        "103926.493000",
        "103927.477000",
        "103928.487000",
        "103929.536000",
        "103930.503000",
        "103931.510000",
        "103932.501000",
        "103933.483000",
        "103934.510000",
        "103935.503000",
        "103936.493000",
        "103937.483000",
        "103938.490000",
        "103939.481000",
        "103940.485000",
        "103941.471000",
        "103942.543000",
        "103943.467000",
        "103944.490000",
        "103945.529000",
        "103946.473000",
        "103947.480000",
        "103948.488000",
        "103949.491000",
        "103950.472000",
        "103951.483000",
        "103952.467000",
        "103953.492000",
        "103954.559000",
        "103955.497000",
        "103956.517000",
        "103957.464000",
        "103958.526000",
        "103959.476000",
        "104000.512000",
        "104001.495000",
        "104002.476000",
        "104003.486000",
        "104004.474000",
        "104005.490000",
        "104006.526000",
        "104007.484000",
        "104008.526000",
        "104009.499000",
        "104010.532000",
        "104011.480000",
        "104012.501000",
        "104013.477000",
        "104014.496000",
        "104015.470000",
        "104016.516000",
        "104017.482000",
        "104018.513000",
        "104019.503000",
        "104020.464000",
        "104021.455000",
        "104022.544000",
        "104023.516000",
        "104024.479000",
        "104025.526000",
        "104026.479000",
        "104027.467000",
        "104028.475000",
        "104029.479000",
        "104030.496000",
        "104031.513000",
        "104032.532000",
        "104033.468000",
        "104034.469000",
        "104035.476000",
        "104036.480000",
        "104037.469000",
        "104038.515000",
        "104039.495000",
        "104040.484000",
        "104041.491000",
        "104042.468000",
        "104043.479000",
        "104044.484000",
        "104045.465000",
        "104046.483000",
        "104047.480000",
        "104048.475000",
        "104049.533000",
        "104050.496000",
        "104051.491000",
        "104052.505000",
        "104053.488000",
        "104054.469000",
        "104055.494000",
        "104056.544000",
        "104057.526000",
        "104058.519000",
        "104059.483000",
        "104100.516000",
        "104101.534000",
        "104102.537000",
        "104103.542000",
        "104104.487000",
        "104105.505000",
        "104106.504000",
        "104107.483000",
        "104108.494000",
        "104109.505000",
        "104110.509000",
        "104111.487000",
        "104112.487000",
        "104113.486000",
        "104114.505000",
        "104115.494000",
        "104116.474000",
        "104117.453000",
        "104118.501000",
        "104119.482000",
        "104120.498000",
        "104121.501000",
        "104122.486000",
        "104123.509000",
        "104124.515000",
        "104125.486000",
        "104126.511000",
        "104127.467000",
        "104128.499000",
        "104129.498000",
        "104130.495000",
        "104131.510000",
        "104132.483000",
        "104133.558000",
        "104134.488000",
        "104135.509000",
        "104136.502000",
        "104137.512000",
        "104138.488000",
        "104139.502000",
        "104140.479000",
        "104141.528000",
        "104142.494000",
        "104143.491000",
        "104144.541000",
        "104145.498000",
        "104146.538000",
        "104147.583000",
        "104148.479000",
        "104149.500000",
        "104150.500000",
        "104151.509000",
        "104152.479000",
        "104153.477000",
        "104154.483000",
        "104155.496000",
        "104156.479000",
        "104157.487000",
        "104158.486000",
        "104159.509000",
        "104200.518000",
        "104201.531000",
        "104202.490000",
        "104203.492000",
        "104204.481000",
        "104205.520000",
        "104206.506000",
        "104207.497000",
        "104208.452000",
        "104209.488000",
        "104210.486000",
        "104211.482000",
        "104212.472000",
        "104213.484000",
        "104214.480000",
        "104215.484000",
        "104216.498000",
        "104217.511000",
        "104218.506000",
        "104219.529000",
        "104220.480000",
        "104221.491000",
        "104222.497000",
        "104223.483000",
        "104224.507000",
        "104225.496000",
        "104226.525000",
        "104227.556000",
        "104228.567000",
        "104229.558000",
        "104230.481000",
        "104231.496000",
        "104232.480000",
        "104233.521000",
        "104234.492000",
        "104235.492000",
        "104236.478000",
        "104237.499000",
        "104238.489000",
        "104239.485000",
        "104240.533000",
        "104241.535000",
        "104242.495000",
        "104243.490000",
        "104244.483000",
        "104245.484000",
        "104246.485000",
        "104247.480000",
        "104248.471000",
        "104249.509000",
        "104250.509000",
        "104251.499000",
        "104252.497000",
        "104253.559000",
        "104254.495000",
        "104255.540000",
        "104256.499000",
        "104257.482000",
        "104258.496000",
        "104259.507000",
        "104300.506000",
        "104301.497000",
        "104302.517000",
        "104303.541000",
        "104304.491000",
        "104305.512000",
        "104306.496000",
        "104307.512000",
        "104308.481000",
        "104309.503000",
        "104310.475000",
        "104311.514000",
        "104312.557000",
        "104313.484000",
        "104314.477000",
        "104315.498000",
        "104316.484000",
        "104317.507000",
        "104318.519000",
        "104319.485000",
        "104320.524000",
        "104321.474000",
        "104322.505000",
        "104323.560000",
        "104324.496000",
        "104325.494000",
        "104326.471000",
        "104327.505000",
        "104328.491000",
        "104329.489000",
        "104330.481000",
        "104331.515000",
        "104332.475000",
        "104333.515000",
        "104334.496000",
        "104335.480000",
        "104336.510000",
        "104337.453000",
        "104338.512000",
        "104339.497000",
        "104340.495000",
        "104341.474000",
        "104342.492000",
        "104343.492000",
        "104344.479000",
        "104345.495000",
        "104346.499000",
        "104347.483000",
        "104348.471000",
        "104349.489000",
        "104350.486000",
        "104351.489000",
        "104352.444000",
        "104353.497000",
        "104354.482000",
        "104355.499000",
        "104356.481000",
        "104357.498000",
        "104358.482000",
        "104359.543000",
        "104400.489000",
        "104401.514000",
        "104402.488000",
        "104403.492000",
        "104404.557000",
        "104405.512000",
        "104406.501000",
        "104407.483000",
        "104408.518000",
        "104409.495000",
        "104410.483000",
        "104411.498000",
        "104412.502000"
      ],
      "InstanceNumber": [
        1,
        2,
        3,
        4,
        5,
        6,
        7,
        8,
        9,
        10,
        11,
        12,
        13,
        14,
        15,
        16,
        17,
        18,
        19,
        20,
        21,
        22,
        23,
        24,
        25,
        26,
        27,
        28,
        29,
        30,
        31,
        32,
        33,
        34,
        35,
        36,
        37,
        38,
        39,
        40,
        41,
        42,
        43,
        44,
        45,
        46,
        47,
        48,
        49,
        50,
        51,
        52,
        53,
        54,
        55,
        56,
        57,
        58,
        59,
        60,
        61,
        62,
        63,
        64,
        65,
        66,
        67,
        68,
        69,
        70,
        71,
        72,
        73,
        74,
        75,
        76,
        77,
        78,
        79,
        80,
        81,
        82,
        83,
        84,
        85,
        86,
        87,
        88,
        89,
        90,
        91,
        92,
        93,
        94,
        95,
        96,
        97,
        98,
        99,
        100,
        101,
        102,
        103,
        104,
        105,
        106,
        107,
        108,
        109,
        110,
        111,
        112,
        113,
        114,
        115,
        116,
        117,
        118,
        119,
        120,
        121,
        122,
        123,
        124,
        125,
        126,
        127,
        128,
        129,
        130,
        131,
        132,
        133,
        134,
        135,
        136,
        137,
        138,
        139,
        140,
        141,
        142,
        143,
        144,
        145,
        146,
        147,
        148,
        149,
        150,
        151,
        152,
        153,
