{
  "AcquisitionMatrixPE": 96,
  "AcquisitionNumber": 1,
  "BandwidthPerPixelPhaseEncode": 18.939,
  "BaseResolution": 96,
  "BodyPartExamined": "BRAIN",
  "ConsistencyInfo": "N4_VE11C_LATEST_20160120",
  "ConversionSoftware": "dcm2niix",
  "ConversionSoftwareVersion": "v1.0.20171215 (OpenJPEG build) GCC6.3.0",
  "DerivedVendorReportedEchoSpacing": 0.000550011,
  "DeviceSerialNumber": "66112",
  "DwellTime": 2.2e-06,
  "EchoTime": 0.033,
  "EchoTrainLength": 96,
  "EffectiveEchoSpacing": 0.000550011,
  "FlipAngle": 59,
  "ImageOrientationPatientDICOM": [
    0.999528,
    -0.00279944,
    0.0306045,
    0.00209342,
    0.999731,
    0.0230769
  ],
  "ImageType": [
    "ORIGINAL",
    "PRIMARY",
    "FMRI",
    "NONE",
    "ND",
    "NORM",
    "MOSAIC"
  ],
  "InPlanePhaseEncodingDirectionDICOM": "COL",
  "InstitutionAddress": "Maynard_3_Hanover_NH_US_03755",
  "InstitutionName": "Dartmouth_College_-_PBS",
  "InstitutionalDepartmentName": "Department",
  "MRAcquisitionType": "2D",
  "MagneticFieldStrength": 3,
  "Manufacturer": "Siemens",
  "ManufacturersModelName": "Prisma",
  "Modality": "MR",
  "MultibandAccelerationFactor": 4,
  "PartialFourier": 1,
  "PatientPosition": "HFS",
  "PercentPhaseFOV": 100,
  "PhaseEncodingDirection": "j-",
  "PhaseEncodingSteps": 96,
  "PhaseResolution": 1,
  "PixelBandwidth": 2365,
  "ProcedureStepDescription": "Gobbini_Matteo_1038_hyperface",
  "ProtocolName": "func_run-03_task-visualmemory",
  "PulseSequenceDetails": "%SiemensSeq%_ep2d_bold",
  "ReceiveCoilActiveElements": "HEA;HEP",
  "ReceiveCoilName": "Head_32",
  "ReconMatrixPE": 96,
  "RepetitionTime": 1,
  "SAR": 0.0412536,
  "ScanOptions": "FS",
  "ScanningSequence": "EP",
  "SequenceName": "_epfid2d1_96",
  "SequenceVariant": "SK",
  "SeriesDescription": "func_run-03_task-visualmemory",
  "SeriesNumber": 21,
  "ShimSetting": [
    4154,
    -7719,
    -7468,
    313,
    -11,
    94,
    -55,
    63
  ],
  "SliceThickness": 2.5,
  "SliceTiming": [
    0.735,
    0,
    0.49,
    0.0825,
    0.5725,
    0.1625,
    0.6525,
    0.3275,
    0.8175,
    0.4075,
    0.8975,
    0.245,
    0.735,
    0,
    0.49,
    0.0825,
    0.5725,
    0.1625,
    0.6525,
    0.3275,
    0.8175,
    0.4075,
    0.8975,
    0.245,
    0.735,
    0,
    0.49,
    0.0825,
    0.5725,
    0.1625,
    0.6525,
    0.3275,
    0.8175,
    0.4075,
    0.8975,
    0.245,
    0.735,
    0,
    0.49,
    0.0825,
    0.5725,
    0.1625,
    0.6525,
    0.3275,
    0.8175,
    0.4075,
    0.8975,
    0.245
  ],
  "SoftwareVersions": "syngo_MR_E11",
  "SpacingBetweenSlices": 2.5,
  "StationName": "AWP66112",
  "TotalReadoutTime": 0.0522511,
  "TxRefAmp": 228.465,
  "time": {
    "samples": {
      "AcquisitionNumber": [
        1,
        2,
        3,
        4,
        5,
        6,
        7,
        8,
        9,
        10,
        11,
        12,
        13,
        14,
        15,
        16,
        17,
        18,
        19,
        20,
        21,
        22,
        23,
        24,
        25,
        26,
        27,
        28,
        29,
        30,
        31,
        32,
        33,
        34,
        35,
        36,
        37,
        38,
        39,
        40,
        41,
        42,
        43,
        44,
        45,
        46,
        47,
        48,
        49,
        50,
        51,
        52,
        53,
        54,
        55,
        56,
        57,
        58,
        59,
        60,
        61,
        62,
        63,
        64,
        65,
        66,
        67,
        68,
        69,
        70,
        71,
        72,
        73,
        74,
        75,
        76,
        77,
        78,
        79,
        80,
        81,
        82,
        83,
        84,
        85,
        86,
        87,
        88,
        89,
        90,
        91,
        92,
        93,
        94,
        95,
        96,
        97,
        98,
        99,
        100,
        101,
        102,
        103,
        104,
        105,
        106,
        107,
        108,
        109,
        110,
        111,
        112,
        113,
        114,
        115,
        116,
        117,
        118,
        119,
        120,
        121,
        122,
        123,
        124,
        125,
        126,
        127,
        128,
        129,
        130,
        131,
        132,
        133,
        134,
        135,
        136,
        137,
        138,
        139,
        140,
        141,
        142,
        143,
        144,
        145,
        146,
        147,
        148,
        149,
        150,
        151,
        152,
        153,
        154,
        155,
        156,
        157,
        158,
        159,
        160,
        161,
        162,
        163,
        164,
        165,
        166,
        167,
        168,
        169,
        170,
        171,
        172,
        173,
        174,
        175,
        176,
        177,
        178,
        179,
        180,
        181,
        182,
        183,
        184,
        185,
        186,
        187,
        188,
        189,
        190,
        191,
        192,
        193,
        194,
        195,
        196,
        197,
        198,
        199,
        200,
        201,
        202,
        203,
        204,
        205,
        206,
        207,
        208,
        209,
        210,
        211,
        212,
        213,
        214,
        215,
        216,
        217,
        218,
        219,
        220,
        221,
        222,
        223,
        224,
        225,
        226,
        227,
        228,
        229,
        230,
        231,
        232,
        233,
        234,
        235,
        236,
        237,
        238,
        239,
        240,
        241,
        242,
        243,
        244,
        245,
        246,
        247,
        248,
        249,
        250,
        251,
        252,
        253,
        254,
        255,
        256,
        257,
        258,
        259,
        260,
        261,
        262,
        263,
        264,
        265,
        266,
        267,
        268,
        269,
        270,
        271,
        272,
        273,
        274,
        275,
        276,
        277,
        278,
        279,
        280,
        281,
        282,
        283,
        284,
        285,
        286,
        287,
        288
      ],
      "AcquisitionTime": [
        "101900.182500",
        "101901.182500",
        "101902.182500",
        "101903.182500",
        "101904.182500",
        "101905.182500",
        "101906.182500",
        "101907.182500",
        "101908.182500",
        "101909.182500",
        "101910.182500",
        "101911.182500",
        "101912.182500",
        "101913.182500",
        "101914.182500",
        "101915.182500",
        "101916.182500",
        "101917.182500",
        "101918.182500",
        "101919.182500",
        "101920.182500",
        "101921.182500",
        "101922.182500",
        "101923.182500",
        "101924.182500",
        "101925.182500",
        "101926.182500",
        "101927.182500",
        "101928.182500",
        "101929.182500",
        "101930.182500",
        "101931.182500",
        "101932.182500",
        "101933.182500",
        "101934.182500",
        "101935.182500",
        "101936.182500",
        "101937.182500",
        "101938.182500",
        "101939.182500",
        "101940.182500",
        "101941.182500",
        "101942.182500",
        "101943.182500",
        "101944.182500",
        "101945.182500",
        "101946.182500",
        "101947.182500",
        "101948.182500",
        "101949.182500",
        "101950.182500",
        "101951.182500",
        "101952.182500",
        "101953.182500",
        "101954.182500",
        "101955.182500",
        "101956.182500",
        "101957.182500",
        "101958.182500",
        "101959.182500",
        "102000.182500",
        "102001.182500",
        "102002.182500",
        "102003.182500",
        "102004.182500",
        "102005.182500",
        "102006.182500",
        "102007.182500",
        "102008.182500",
        "102009.182500",
        "102010.182500",
        "102011.182500",
        "102012.182500",
        "102013.182500",
        "102014.182500",
        "102015.182500",
        "102016.182500",
        "102017.182500",
        "102018.182500",
        "102019.182500",
        "102020.182500",
        "102021.182500",
        "102022.182500",
        "102023.182500",
        "102024.182500",
        "102025.182500",
        "102026.182500",
        "102027.182500",
        "102028.182500",
        "102029.182500",
        "102030.182500",
        "102031.182500",
        "102032.182500",
        "102033.182500",
        "102034.182500",
        "102035.182500",
        "102036.182500",
        "102037.182500",
        "102038.182500",
        "102039.182500",
        "102040.182500",
        "102041.182500",
        "102042.182500",
        "102043.182500",
        "102044.182500",
        "102045.182500",
        "102046.182500",
        "102047.182500",
        "102048.182500",
        "102049.182500",
        "102050.182500",
        "102051.182500",
        "102052.182500",
        "102053.182500",
        "102054.182500",
        "102055.182500",
        "102056.182500",
        "102057.182500",
        "102058.182500",
        "102059.182500",
        "102100.182500",
        "102101.182500",
        "102102.182500",
        "102103.182500",
        "102104.182500",
        "102105.182500",
        "102106.182500",
        "102107.182500",
        "102108.182500",
        "102109.182500",
        "102110.182500",
        "102111.182500",
        "102112.182500",
        "102113.182500",
        "102114.182500",
        "102115.182500",
        "102116.182500",
        "102117.182500",
        "102118.182500",
        "102119.182500",
        "102120.182500",
        "102121.182500",
        "102122.182500",
        "102123.182500",
        "102124.182500",
        "102125.182500",
        "102126.182500",
        "102127.182500",
        "102128.182500",
        "102129.182500",
        "102130.182500",
        "102131.182500",
        "102132.182500",
        "102133.182500",
        "102134.182500",
        "102135.182500",
        "102136.182500",
        "102137.182500",
        "102138.182500",
        "102139.182500",
        "102140.182500",
        "102141.182500",
        "102142.182500",
        "102143.182500",
        "102144.182500",
        "102145.182500",
        "102146.182500",
        "102147.182500",
        "102148.182500",
        "102149.182500",
        "102150.182500",
        "102151.182500",
        "102152.182500",
        "102153.182500",
        "102154.182500",
        "102155.182500",
        "102156.182500",
        "102157.182500",
        "102158.182500",
        "102159.182500",
        "102200.182500",
        "102201.182500",
        "102202.182500",
        "102203.182500",
        "102204.182500",
        "102205.182500",
        "102206.182500",
        "102207.182500",
        "102208.182500",
        "102209.182500",
        "102210.182500",
        "102211.182500",
        "102212.182500",
        "102213.182500",
        "102214.182500",
        "102215.182500",
        "102216.182500",
        "102217.182500",
        "102218.182500",
        "102219.182500",
        "102220.182500",
        "102221.182500",
        "102222.182500",
        "102223.182500",
        "102224.182500",
        "102225.182500",
        "102226.182500",
        "102227.182500",
        "102228.182500",
        "102229.182500",
        "102230.182500",
        "102231.182500",
        "102232.182500",
        "102233.182500",
        "102234.182500",
        "102235.182500",
        "102236.182500",
        "102237.182500",
        "102238.182500",
        "102239.182500",
        "102240.182500",
        "102241.182500",
        "102242.182500",
        "102243.182500",
        "102244.182500",
        "102245.182500",
        "102246.182500",
        "102247.182500",
        "102248.182500",
        "102249.182500",
        "102250.182500",
        "102251.182500",
        "102252.182500",
        "102253.182500",
        "102254.182500",
        "102255.182500",
        "102256.182500",
        "102257.182500",
        "102258.182500",
        "102259.182500",
        "102300.182500",
        "102301.182500",
        "102302.182500",
        "102303.182500",
        "102304.182500",
        "102305.182500",
        "102306.182500",
        "102307.182500",
        "102308.182500",
        "102309.182500",
        "102310.182500",
        "102311.182500",
        "102312.182500",
        "102313.182500",
        "102314.182500",
        "102315.182500",
        "102316.182500",
        "102317.182500",
        "102318.182500",
        "102319.182500",
        "102320.182500",
        "102321.182500",
        "102322.182500",
        "102323.182500",
        "102324.182500",
        "102325.182500",
        "102326.182500",
        "102327.182500",
        "102328.182500",
        "102329.182500",
        "102330.182500",
        "102331.182500",
        "102332.182500",
        "102333.182500",
        "102334.182500",
        "102335.182500",
        "102336.182500",
        "102337.182500",
        "102338.182500",
        "102339.182500",
        "102340.182500",
        "102341.182500",
        "102342.182500",
        "102343.182500",
        "102344.182500",
        "102345.182500",
        "102346.182500",
        "102347.182500"
      ],
      "ContentTime": [
        "101901.307000",
        "101902.077000",
        "101903.048000",
        "101904.068000",
        "101905.077000",
        "101906.056000",
        "101907.055000",
        "101908.064000",
        "101909.081000",
        "101910.047000",
        "101911.055000",
        "101912.086000",
        "101913.079000",
        "101914.073000",
        "101915.114000",
        "101916.100000",
        "101917.058000",
        "101918.098000",
        "101919.053000",
        "101920.080000",
        "101921.042000",
        "101922.075000",
        "101923.072000",
        "101924.094000",
        "101925.070000",
        "101926.064000",
        "101927.058000",
        "101928.065000",
        "101929.080000",
        "101930.069000",
        "101931.083000",
        "101932.076000",
        "101933.053000",
        "101934.082000",
        "101935.077000",
        "101936.095000",
        "101937.081000",
        "101938.111000",
        "101939.073000",
        "101940.071000",
        "101941.063000",
        "101942.077000",
        "101943.064000",
        "101944.083000",
        "101945.105000",
        "101946.070000",
        "101947.072000",
        "101948.108000",
        "101949.079000",
        "101950.042000",
        "101951.070000",
        "101952.077000",
        "101953.086000",
        "101954.091000",
        "101955.072000",
        "101956.093000",
        "101957.086000",
        "101958.065000",
        "101959.053000",
        "102000.066000",
        "102001.059000",
        "102002.079000",
        "102003.090000",
        "102004.068000",
        "102005.060000",
        "102006.063000",
        "102007.106000",
        "102008.126000",
        "102009.092000",
        "102010.043000",
        "102011.054000",
        "102012.065000",
        "102013.071000",
        "102014.067000",
        "102015.060000",
        "102016.096000",
        "102017.071000",
        "102018.070000",
        "102019.089000",
        "102020.116000",
        "102021.101000",
        "102022.055000",
        "102023.055000",
        "102024.058000",
        "102025.099000",
        "102026.066000",
        "102027.067000",
        "102028.062000",
        "102029.066000",
        "102030.062000",
        "102031.049000",
        "102032.081000",
        "102033.072000",
        "102034.062000",
        "102035.065000",
        "102036.078000",
        "102037.054000",
        "102038.062000",
        "102039.059000",
        "102040.079000",
        "102041.097000",
        "102042.069000",
        "102043.070000",
        "102044.072000",
        "102045.084000",
        "102046.088000",
        "102047.077000",
        "102048.071000",
        "102049.086000",
        "102050.075000",
        "102051.078000",
        "102052.072000",
        "102053.061000",
        "102054.101000",
        "102055.080000",
        "102056.041000",
        "102057.092000",
        "102058.060000",
        "102059.110000",
        "102100.070000",
        "102101.127000",
        "102102.094000",
        "102103.095000",
        "102104.151000",
        "102105.079000",
        "102106.096000",
        "102107.122000",
        "102108.068000",
        "102109.083000",
        "102110.096000",
        "102111.100000",
        "102112.078000",
        "102113.102000",
        "102114.106000",
        "102115.078000",
        "102116.064000",
        "102117.086000",
        "102118.081000",
        "102119.089000",
        "102120.081000",
        "102121.090000",
        "102122.066000",
        "102123.073000",
        "102124.031000",
        "102125.097000",
        "102126.073000",
        "102127.039000",
        "102128.053000",
        "102129.114000",
        "102130.125000",
        "102131.100000",
        "102132.074000",
        "102133.075000",
        "102134.072000",
        "102135.051000",
        "102136.077000",
        "102137.086000",
        "102138.077000",
        "102139.107000",
        "102140.065000",
        "102141.045000",
        "102142.085000",
        "102143.080000",
        "102144.067000",
        "102145.064000",
        "102146.089000",
        "102147.085000",
        "102148.078000",
        "102149.107000",
        "102150.063000",
        "102151.066000",
        "102152.060000",
        "102153.072000",
        "102154.086000",
        "102155.081000",
        "102156.091000",
        "102157.124000",
        "102158.054000",
        "102159.073000",
        "102200.095000",
        "102201.112000",
        "102202.073000",
        "102203.085000",
        "102204.097000",
        "102205.063000",
        "102206.072000",
        "102207.062000",
        "102208.085000",
        "102209.071000",
        "102210.066000",
        "102211.061000",
        "102212.087000",
        "102213.078000",
        "102214.075000",
        "102215.075000",
        "102216.052000",
        "102217.072000",
        "102218.068000",
        "102219.117000",
        "102220.056000",
        "102221.074000",
        "102222.068000",
        "102223.061000",
        "102224.040000",
        "102225.062000",
        "102226.073000",
        "102227.086000",
        "102228.074000",
        "102229.073000",
        "102230.066000",
        "102231.044000",
        "102232.122000",
        "102233.102000",
        "102234.112000",
        "102235.080000",
        "102236.055000",
        "102237.085000",
        "102238.056000",
        "102239.054000",
        "102240.089000",
        "102241.080000",
        "102242.075000",
        "102243.080000",
        "102244.076000",
        "102245.115000",
        "102246.081000",
        "102247.083000",
        "102248.119000",
        "102249.075000",
        "102250.063000",
        "102251.065000",
        "102252.086000",
        "102253.065000",
        "102254.109000",
        "102255.070000",
        "102256.069000",
        "102257.069000",
        "102258.091000",
        "102259.103000",
        "102300.082000",
        "102301.043000",
        "102302.058000",
        "102303.077000",
        "102304.068000",
        "102305.077000",
        "102306.074000",
        "102307.084000",
        "102308.067000",
        "102309.086000",
        "102310.065000",
        "102311.084000",
        "102312.083000",
        "102313.078000",
        "102314.117000",
        "102315.106000",
        "102316.060000",
        "102317.119000",
        "102318.072000",
        "102319.084000",
        "102320.056000",
        "102321.124000",
        "102322.137000",
        "102323.106000",
        "102324.085000",
        "102325.091000",
        "102326.066000",
        "102327.083000",
        "102328.143000",
        "102329.152000",
        "102330.092000",
        "102331.079000",
        "102332.064000",
        "102333.067000",
        "102334.068000",
        "102335.085000",
        "102336.084000",
        "102337.092000",
        "102338.061000",
        "102339.106000",
        "102340.060000",
        "102341.069000",
        "102342.087000",
        "102343.106000",
        "102344.104000",
        "102345.067000",
        "102346.079000",
        "102347.143000",
        "102348.115000"
      ],
      "InstanceCreationTime": [
        "101901.307000",
        "101902.077000",
        "101903.048000",
        "101904.068000",
        "101905.077000",
        "101906.056000",
        "101907.055000",
        "101908.064000",
        "101909.081000",
        "101910.047000",
        "101911.055000",
        "101912.086000",
        "101913.079000",
        "101914.073000",
        "101915.114000",
        "101916.100000",
        "101917.058000",
        "101918.098000",
        "101919.053000",
        "101920.080000",
        "101921.042000",
        "101922.075000",
        "101923.072000",
        "101924.094000",
        "101925.070000",
        "101926.064000",
        "101927.058000",
        "101928.065000",
        "101929.080000",
        "101930.069000",
        "101931.083000",
        "101932.076000",
        "101933.053000",
        "101934.082000",
        "101935.077000",
        "101936.095000",
        "101937.081000",
        "101938.111000",
        "101939.073000",
        "101940.071000",
        "101941.063000",
        "101942.077000",
        "101943.064000",
        "101944.083000",
        "101945.105000",
        "101946.070000",
        "101947.072000",
        "101948.108000",
        "101949.079000",
        "101950.042000",
        "101951.070000",
        "101952.077000",
        "101953.086000",
        "101954.091000",
        "101955.072000",
        "101956.093000",
        "101957.086000",
        "101958.065000",
        "101959.053000",
        "102000.066000",
        "102001.059000",
        "102002.079000",
        "102003.090000",
        "102004.068000",
        "102005.060000",
        "102006.063000",
        "102007.106000",
        "102008.126000",
        "102009.092000",
        "102010.043000",
        "102011.054000",
        "102012.065000",
        "102013.071000",
        "102014.067000",
        "102015.060000",
        "102016.096000",
        "102017.071000",
        "102018.070000",
        "102019.089000",
        "102020.116000",
        "102021.101000",
        "102022.055000",
        "102023.055000",
        "102024.058000",
        "102025.099000",
        "102026.066000",
        "102027.067000",
        "102028.062000",
        "102029.066000",
        "102030.062000",
        "102031.049000",
        "102032.081000",
        "102033.072000",
        "102034.062000",
        "102035.065000",
        "102036.078000",
        "102037.054000",
        "102038.062000",
        "102039.059000",
        "102040.079000",
        "102041.097000",
        "102042.069000",
        "102043.070000",
        "102044.072000",
        "102045.084000",
        "102046.088000",
        "102047.077000",
        "102048.071000",
        "102049.086000",
        "102050.075000",
        "102051.078000",
        "102052.072000",
        "102053.061000",
        "102054.101000",
        "102055.080000",
        "102056.041000",
        "102057.092000",
        "102058.060000",
        "102059.110000",
        "102100.070000",
        "102101.127000",
        "102102.094000",
        "102103.095000",
        "102104.151000",
        "102105.079000",
        "102106.096000",
        "102107.122000",
        "102108.068000",
        "102109.083000",
        "102110.096000",
        "102111.100000",
        "102112.078000",
        "102113.102000",
        "102114.106000",
        "102115.078000",
        "102116.064000",
        "102117.086000",
        "102118.081000",
        "102119.089000",
        "102120.081000",
        "102121.090000",
        "102122.066000",
        "102123.073000",
        "102124.031000",
        "102125.097000",
        "102126.073000",
        "102127.039000",
        "102128.053000",
        "102129.114000",
        "102130.125000",
        "102131.100000",
        "102132.074000",
        "102133.075000",
        "102134.072000",
        "102135.051000",
        "102136.077000",
        "102137.086000",
        "102138.077000",
        "102139.107000",
        "102140.065000",
        "102141.045000",
        "102142.085000",
        "102143.080000",
        "102144.067000",
        "102145.064000",
        "102146.089000",
        "102147.085000",
        "102148.078000",
        "102149.107000",
        "102150.063000",
        "102151.066000",
        "102152.060000",
        "102153.072000",
        "102154.086000",
        "102155.081000",
        "102156.091000",
        "102157.124000",
        "102158.054000",
        "102159.073000",
        "102200.095000",
        "102201.112000",
        "102202.073000",
        "102203.085000",
        "102204.097000",
        "102205.063000",
        "102206.072000",
        "102207.062000",
        "102208.085000",
        "102209.071000",
        "102210.066000",
        "102211.061000",
        "102212.087000",
        "102213.078000",
        "102214.075000",
        "102215.075000",
        "102216.052000",
        "102217.072000",
        "102218.068000",
        "102219.117000",
        "102220.056000",
        "102221.074000",
        "102222.068000",
        "102223.061000",
        "102224.040000",
        "102225.062000",
        "102226.073000",
        "102227.086000",
        "102228.074000",
        "102229.073000",
        "102230.066000",
        "102231.044000",
        "102232.122000",
        "102233.102000",
        "102234.112000",
        "102235.080000",
        "102236.055000",
        "102237.085000",
        "102238.056000",
        "102239.054000",
        "102240.089000",
        "102241.080000",
        "102242.075000",
        "102243.080000",
        "102244.076000",
        "102245.115000",
        "102246.081000",
        "102247.083000",
        "102248.119000",
        "102249.075000",
        "102250.063000",
        "102251.065000",
        "102252.086000",
        "102253.065000",
        "102254.109000",
        "102255.070000",
        "102256.069000",
        "102257.069000",
        "102258.091000",
        "102259.103000",
        "102300.082000",
        "102301.043000",
        "102302.058000",
        "102303.077000",
        "102304.068000",
        "102305.077000",
        "102306.074000",
        "102307.084000",
        "102308.067000",
        "102309.086000",
        "102310.065000",
        "102311.084000",
        "102312.083000",
        "102313.078000",
        "102314.117000",
        "102315.106000",
        "102316.060000",
        "102317.119000",
        "102318.072000",
        "102319.084000",
        "102320.056000",
        "102321.124000",
        "102322.137000",
        "102323.106000",
        "102324.085000",
        "102325.091000",
        "102326.066000",
        "102327.083000",
        "102328.143000",
        "102329.152000",
        "102330.092000",
        "102331.079000",
        "102332.064000",
        "102333.067000",
        "102334.068000",
        "102335.085000",
        "102336.084000",
        "102337.092000",
        "102338.061000",
        "102339.106000",
        "102340.060000",
        "102341.069000",
        "102342.087000",
        "102343.106000",
        "102344.104000",
        "102345.067000",
        "102346.079000",
        "102347.143000",
        "102348.115000"
      ],
      "InstanceNumber": [
        1,
        2,
        3,
        4,
        5,
        6,
        7,
        8,
        9,
        10,
        11,
        12,
        13,
        14,
        15,
        16,
        17,
        18,
        19,
        20,
        21,
        22,
        23,
        24,
        25,
        26,
        27,
        28,
        29,
        30,
        31,
        32,
        33,
        34,
        35,
        36,
        37,
        38,
        39,
        40,
        41,
        42,
        43,
        44,
        45,
        46,
        47,
        48,
        49,
        50,
        51,
        52,
        53,
        54,
        55,
        56,
        57,
        58,
        59,
        60,
        61,
        62,
        63,
        64,
        65,
        66,
        67,
        68,
        69,
        70,
        71,
        72,
        73,
        74,
        75,
        76,
        77,
        78,
        79,
        80,
        81,
        82,
        83,
        84,
        85,
        86,
        87,
        88,
        89,
        90,
        91,
        92,
        93,
        94,
        95,
        96,
        97,
        98,
        99,
        100,
        101,
        102,
        103,
        104,
        105,
        106,
        107,
        108,
        109,
        110,
        111,
        112,
        113,
        114,
        115,
        116,
        117,
        118,
        119,
        120,
        121,
        122,
        123,
        124,
        125,
        126,
        127,
        128,
        129,
        130,
        131,
        132,
        133,
        134,
        135,
        136,
        137,
        138,
        139,
        140,
        141,
        142,
        143,
        144,
        145,
        146,
        147,
        148,
        149,
        150,
        151,
        152,
        153,
