{
  "AcquisitionMatrixPE": 96,
  "AcquisitionNumber": 1,
  "BandwidthPerPixelPhaseEncode": 18.939,
  "BaseResolution": 96,
  "BodyPartExamined": "BRAIN",
  "ConsistencyInfo": "N4_VE11C_LATEST_20160120",
  "ConversionSoftware": "dcm2niix",
  "ConversionSoftwareVersion": "v1.0.20171215 (OpenJPEG build) GCC6.3.0",
  "DerivedVendorReportedEchoSpacing": 0.000550011,
  "DeviceSerialNumber": "66112",
  "DwellTime": 2.2e-06,
  "EchoTime": 0.033,
  "EchoTrainLength": 96,
  "EffectiveEchoSpacing": 0.000550011,
  "FlipAngle": 59,
  "ImageOrientationPatientDICOM": [
    0.999528,
    -0.00279944,
    0.0306045,
    0.00209342,
    0.999731,
    0.0230769
  ],
  "ImageType": [
    "ORIGINAL",
    "PRIMARY",
    "FMRI",
    "NONE",
    "ND",
    "NORM",
    "MOSAIC"
  ],
  "InPlanePhaseEncodingDirectionDICOM": "COL",
  "InstitutionAddress": "Maynard_3_Hanover_NH_US_03755",
  "InstitutionName": "Dartmouth_College_-_PBS",
  "InstitutionalDepartmentName": "Department",
  "MRAcquisitionType": "2D",
  "MagneticFieldStrength": 3,
  "Manufacturer": "Siemens",
  "ManufacturersModelName": "Prisma",
  "Modality": "MR",
  "MultibandAccelerationFactor": 4,
  "PatientPosition": "HFS",
  "PercentPhaseFOV": 100,
  "PhaseEncodingDirection": "j-",
  "PhaseEncodingSteps": 96,
  "PhaseResolution": 1,
  "PixelBandwidth": 2365,
  "ProcedureStepDescription": "Gobbini_Matteo_1038_hyperface",
  "ProtocolName": "func_run-06_task-visualmemory",
  "PulseSequenceDetails": "%SiemensSeq%_ep2d_bold",
  "ReceiveCoilActiveElements": "HEA;HEP",
  "ReceiveCoilName": "Head_32",
  "ReconMatrixPE": 96,
  "RepetitionTime": 1,
  "SAR": 0.0412536,
  "ScanOptions": "FS",
  "ScanningSequence": "EP",
  "SequenceName": "_epfid2d1_96",
  "SequenceVariant": "SK",
  "SeriesDescription": "func_run-06_task-visualmemory",
  "SeriesNumber": 42,
  "ShimSetting": [
    4154,
    -7719,
    -7468,
    313,
    -11,
    94,
    -55,
    63
  ],
  "SliceThickness": 2.5,
  "SliceTiming": [
    0.735,
    0,
    0.49,
    0.08,
    0.57,
    0.1625,
    0.6525,
    0.325,
    0.815,
    0.4075,
    0.8975,
    0.245,
    0.735,
    0,
    0.49,
    0.08,
    0.57,
    0.1625,
    0.6525,
    0.325,
    0.815,
    0.4075,
    0.8975,
    0.245,
    0.735,
    0,
    0.49,
    0.08,
    0.57,
    0.1625,
    0.6525,
    0.325,
    0.815,
    0.4075,
    0.8975,
    0.245,
    0.735,
    0,
    0.49,
    0.08,
    0.57,
    0.1625,
    0.6525,
    0.325,
    0.815,
    0.4075,
    0.8975,
    0.245
  ],
  "SoftwareVersions": "syngo_MR_E11",
  "SpacingBetweenSlices": 2.5,
  "StationName": "AWP66112",
  "TotalReadoutTime": 0.0522511,
  "TxRefAmp": 228.465,
  "time": {
    "samples": {
      "AcquisitionNumber": [
        1,
        2,
        3,
        4,
        5,
        6,
        7,
        8,
        9,
        10,
        11,
        12,
        13,
        14,
        15,
        16,
        17,
        18,
        19,
        20,
        21,
        22,
        23,
        24,
        25,
        26,
        27,
        28,
        29,
        30,
        31,
        32,
        33,
        34,
        35,
        36,
        37,
        38,
        39,
        40,
        41,
        42,
        43,
        44,
        45,
        46,
        47,
        48,
        49,
        50,
        51,
        52,
        53,
        54,
        55,
        56,
        57,
        58,
        59,
        60,
        61,
        62,
        63,
        64,
        65,
        66,
        67,
        68,
        69,
        70,
        71,
        72,
        73,
        74,
        75,
        76,
        77,
        78,
        79,
        80,
        81,
        82,
        83,
        84,
        85,
        86,
        87,
        88,
        89,
        90,
        91,
        92,
        93,
        94,
        95,
        96,
        97,
        98,
        99,
        100,
        101,
        102,
        103,
        104,
        105,
        106,
        107,
        108,
        109,
        110,
        111,
        112,
        113,
        114,
        115,
        116,
        117,
        118,
        119,
        120,
        121,
        122,
        123,
        124,
        125,
        126,
        127,
        128,
        129,
        130,
        131,
        132,
        133,
        134,
        135,
        136,
        137,
        138,
        139,
        140,
        141,
        142,
        143,
        144,
        145,
        146,
        147,
        148,
        149,
        150,
        151,
        152,
        153,
        154,
        155,
        156,
        157,
        158,
        159,
        160,
        161,
        162,
        163,
        164,
        165,
        166,
        167,
        168,
        169,
        170,
        171,
        172,
        173,
        174,
        175,
        176,
        177,
        178,
        179,
        180,
        181,
        182,
        183,
        184,
        185,
        186,
        187,
        188,
        189,
        190,
        191,
        192,
        193,
        194,
        195,
        196,
        197,
        198,
        199,
        200,
        201,
        202,
        203,
        204,
        205,
        206,
        207,
        208,
        209,
        210,
        211,
        212,
        213,
        214,
        215,
        216,
        217,
        218,
        219,
        220,
        221,
        222,
        223,
        224,
        225,
        226,
        227,
        228,
        229,
        230,
        231,
        232,
        233,
        234,
        235,
        236,
        237,
        238,
        239,
        240,
        241,
        242,
        243,
        244,
        245,
        246,
        247,
        248,
        249,
        250,
        251,
        252,
        253,
        254,
        255,
        256,
        257,
        258,
        259,
        260,
        261,
        262,
        263,
        264,
        265,
        266,
        267,
        268,
        269,
        270,
        271,
        272,
        273,
        274,
        275,
        276,
        277,
        278,
        279,
        280,
        281,
        282,
        283,
        284,
        285,
        286,
        287,
        288
      ],
      "AcquisitionTime": [
        "103406.762500",
        "103407.762500",
        "103408.762500",
        "103409.762500",
        "103410.762500",
        "103411.762500",
        "103412.762500",
        "103413.762500",
        "103414.762500",
        "103415.762500",
        "103416.762500",
        "103417.762500",
        "103418.762500",
        "103419.762500",
        "103420.762500",
        "103421.762500",
        "103422.762500",
        "103423.762500",
        "103424.762500",
        "103425.762500",
        "103426.762500",
        "103427.762500",
        "103428.762500",
        "103429.762500",
        "103430.762500",
        "103431.762500",
        "103432.762500",
        "103433.762500",
        "103434.762500",
        "103435.762500",
        "103436.762500",
        "103437.762500",
        "103438.762500",
        "103439.762500",
        "103440.762500",
        "103441.762500",
        "103442.762500",
        "103443.762500",
        "103444.762500",
        "103445.762500",
        "103446.762500",
        "103447.762500",
        "103448.762500",
        "103449.762500",
        "103450.762500",
        "103451.762500",
        "103452.762500",
        "103453.762500",
        "103454.762500",
        "103455.762500",
        "103456.762500",
        "103457.762500",
        "103458.762500",
        "103459.762500",
        "103500.762500",
        "103501.762500",
        "103502.762500",
        "103503.762500",
        "103504.762500",
        "103505.762500",
        "103506.762500",
        "103507.762500",
        "103508.762500",
        "103509.762500",
        "103510.762500",
        "103511.762500",
        "103512.762500",
        "103513.762500",
        "103514.762500",
        "103515.762500",
        "103516.762500",
        "103517.762500",
        "103518.762500",
        "103519.762500",
        "103520.762500",
        "103521.762500",
        "103522.762500",
        "103523.762500",
        "103524.762500",
        "103525.762500",
        "103526.762500",
        "103527.762500",
        "103528.762500",
        "103529.762500",
        "103530.762500",
        "103531.762500",
        "103532.762500",
        "103533.762500",
        "103534.762500",
        "103535.762500",
        "103536.762500",
        "103537.762500",
        "103538.762500",
        "103539.762500",
        "103540.762500",
        "103541.762500",
        "103542.762500",
        "103543.762500",
        "103544.762500",
        "103545.762500",
        "103546.762500",
        "103547.762500",
        "103548.762500",
        "103549.762500",
        "103550.762500",
        "103551.762500",
        "103552.762500",
        "103553.762500",
        "103554.762500",
        "103555.762500",
        "103556.762500",
        "103557.762500",
        "103558.762500",
        "103559.762500",
        "103600.762500",
        "103601.762500",
        "103602.762500",
        "103603.762500",
        "103604.762500",
        "103605.762500",
        "103606.762500",
        "103607.762500",
        "103608.762500",
        "103609.762500",
        "103610.762500",
        "103611.762500",
        "103612.762500",
        "103613.762500",
        "103614.762500",
        "103615.762500",
        "103616.762500",
        "103617.762500",
        "103618.762500",
        "103619.762500",
        "103620.762500",
        "103621.762500",
        "103622.762500",
        "103623.762500",
        "103624.762500",
        "103625.762500",
        "103626.762500",
        "103627.762500",
        "103628.762500",
        "103629.762500",
        "103630.762500",
        "103631.762500",
        "103632.762500",
        "103633.762500",
        "103634.762500",
        "103635.762500",
        "103636.762500",
        "103637.762500",
        "103638.762500",
        "103639.762500",
        "103640.762500",
        "103641.762500",
        "103642.762500",
        "103643.762500",
        "103644.762500",
        "103645.762500",
        "103646.762500",
        "103647.762500",
        "103648.762500",
        "103649.762500",
        "103650.762500",
        "103651.762500",
        "103652.762500",
        "103653.762500",
        "103654.762500",
        "103655.762500",
        "103656.762500",
        "103657.762500",
        "103658.762500",
        "103659.762500",
        "103700.762500",
        "103701.762500",
        "103702.762500",
        "103703.762500",
        "103704.762500",
        "103705.762500",
        "103706.762500",
        "103707.762500",
        "103708.762500",
        "103709.762500",
        "103710.762500",
        "103711.762500",
        "103712.762500",
        "103713.762500",
        "103714.762500",
        "103715.762500",
        "103716.762500",
        "103717.762500",
        "103718.762500",
        "103719.762500",
        "103720.762500",
        "103721.762500",
        "103722.762500",
        "103723.762500",
        "103724.762500",
        "103725.762500",
        "103726.762500",
        "103727.762500",
        "103728.762500",
        "103729.762500",
        "103730.762500",
        "103731.762500",
        "103732.762500",
        "103733.762500",
        "103734.762500",
        "103735.762500",
        "103736.762500",
        "103737.762500",
        "103738.762500",
        "103739.762500",
        "103740.762500",
        "103741.762500",
        "103742.762500",
        "103743.762500",
        "103744.762500",
        "103745.762500",
        "103746.762500",
        "103747.762500",
        "103748.762500",
        "103749.762500",
        "103750.762500",
        "103751.762500",
        "103752.762500",
        "103753.762500",
        "103754.762500",
        "103755.762500",
        "103756.762500",
        "103757.762500",
        "103758.762500",
        "103759.762500",
        "103800.762500",
        "103801.762500",
        "103802.762500",
        "103803.762500",
        "103804.762500",
        "103805.762500",
        "103806.762500",
        "103807.762500",
        "103808.762500",
        "103809.762500",
        "103810.762500",
        "103811.762500",
        "103812.762500",
        "103813.762500",
        "103814.762500",
        "103815.762500",
        "103816.762500",
        "103817.762500",
        "103818.762500",
        "103819.762500",
        "103820.762500",
        "103821.762500",
        "103822.762500",
        "103823.762500",
        "103824.762500",
        "103825.762500",
        "103826.762500",
        "103827.762500",
        "103828.762500",
        "103829.762500",
        "103830.762500",
        "103831.762500",
        "103832.762500",
        "103833.762500",
        "103834.762500",
        "103835.762500",
        "103836.762500",
        "103837.762500",
        "103838.762500",
        "103839.762500",
        "103840.762500",
        "103841.762500",
        "103842.762500",
        "103843.762500",
        "103844.762500",
        "103845.762500",
        "103846.762500",
        "103847.762500",
        "103848.762500",
        "103849.762500",
        "103850.762500",
        "103851.762500",
        "103852.762500",
        "103853.762500"
      ],
      "ContentTime": [
        "103407.713000",
        "103408.549000",
        "103409.546000",
        "103410.541000",
        "103411.530000",
        "103412.518000",
        "103413.537000",
        "103414.514000",
        "103415.558000",
        "103416.602000",
        "103417.575000",
        "103418.541000",
        "103419.549000",
        "103420.540000",
        "103421.533000",
        "103422.536000",
        "103423.527000",
        "103424.557000",
        "103425.541000",
        "103426.534000",
        "103427.552000",
        "103428.534000",
        "103429.527000",
        "103430.528000",
        "103431.515000",
        "103432.544000",
        "103433.536000",
        "103434.568000",
        "103435.543000",
        "103436.530000",
        "103437.525000",
        "103438.511000",
        "103439.516000",
        "103440.534000",
        "103441.527000",
        "103442.525000",
        "103443.530000",
        "103444.518000",
        "103445.528000",
        "103446.509000",
        "103447.540000",
        "103448.525000",
        "103449.530000",
        "103450.534000",
        "103451.535000",
        "103452.558000",
        "103453.537000",
        "103454.557000",
        "103455.526000",
        "103456.551000",
        "103457.534000",
        "103458.560000",
        "103459.547000",
        "103500.542000",
        "103501.533000",
        "103502.534000",
        "103503.524000",
        "103504.588000",
        "103505.549000",
        "103506.530000",
        "103507.520000",
        "103508.509000",
        "103509.541000",
        "103510.544000",
        "103511.535000",
        "103512.559000",
        "103513.544000",
        "103514.519000",
        "103515.540000",
        "103516.530000",
        "103517.529000",
        "103518.544000",
        "103519.530000",
        "103520.557000",
        "103521.569000",
        "103522.530000",
        "103523.545000",
        "103524.531000",
        "103525.534000",
        "103526.524000",
        "103527.529000",
        "103528.527000",
        "103529.523000",
        "103530.550000",
        "103531.518000",
        "103532.541000",
        "103533.561000",
        "103534.550000",
        "103535.560000",
        "103536.544000",
        "103537.546000",
        "103538.549000",
        "103539.552000",
        "103540.563000",
        "103541.509000",
        "103542.563000",
        "103543.508000",
        "103544.518000",
        "103545.525000",
        "103546.571000",
        "103547.535000",
        "103548.518000",
        "103549.565000",
        "103550.523000",
        "103551.509000",
        "103552.569000",
        "103553.541000",
        "103554.533000",
        "103555.578000",
        "103556.563000",
        "103557.534000",
        "103558.575000",
        "103559.538000",
        "103600.530000",
        "103601.517000",
        "103602.505000",
        "103603.532000",
        "103604.527000",
        "103605.583000",
        "103606.528000",
        "103607.540000",
        "103608.542000",
        "103609.506000",
        "103610.508000",
        "103611.592000",
        "103612.534000",
        "103613.546000",
        "103614.576000",
        "103615.537000",
        "103616.540000",
        "103617.553000",
        "103618.538000",
        "103619.548000",
        "103620.533000",
        "103621.565000",
        "103622.532000",
        "103623.590000",
        "103624.542000",
        "103625.550000",
        "103626.568000",
        "103627.554000",
        "103628.557000",
        "103629.502000",
        "103630.524000",
        "103631.554000",
        "103632.547000",
        "103633.557000",
        "103634.522000",
        "103635.555000",
        "103636.543000",
        "103637.531000",
        "103638.530000",
        "103639.547000",
        "103640.547000",
        "103641.531000",
        "103642.544000",
        "103643.518000",
        "103644.546000",
        "103645.528000",
        "103646.529000",
        "103647.533000",
        "103648.544000",
        "103649.582000",
        "103650.558000",
        "103651.526000",
        "103652.518000",
        "103653.536000",
        "103654.591000",
        "103655.525000",
        "103656.538000",
        "103657.533000",
        "103658.556000",
        "103659.537000",
        "103700.539000",
        "103701.591000",
        "103702.545000",
        "103703.513000",
        "103704.522000",
        "103705.544000",
        "103706.551000",
        "103707.519000",
        "103708.531000",
        "103709.533000",
        "103710.540000",
        "103711.529000",
        "103712.554000",
        "103713.532000",
        "103714.546000",
        "103715.552000",
        "103716.558000",
        "103717.511000",
        "103718.527000",
        "103719.546000",
        "103720.542000",
        "103721.570000",
        "103722.528000",
        "103723.563000",
        "103724.549000",
        "103725.508000",
        "103726.530000",
        "103727.541000",
        "103728.523000",
        "103729.538000",
        "103730.523000",
        "103731.532000",
        "103732.539000",
        "103733.536000",
        "103734.530000",
        "103735.538000",
        "103736.581000",
        "103737.533000",
        "103738.519000",
        "103739.562000",
        "103740.539000",
        "103741.537000",
        "103742.527000",
        "103743.543000",
        "103744.516000",
        "103745.526000",
        "103746.552000",
        "103747.543000",
        "103748.547000",
        "103749.529000",
        "103750.534000",
        "103751.551000",
        "103752.510000",
        "103753.540000",
        "103754.568000",
        "103755.563000",
        "103756.575000",
        "103757.534000",
        "103758.537000",
        "103759.528000",
        "103800.552000",
        "103801.527000",
        "103802.549000",
        "103803.577000",
        "103804.538000",
        "103805.548000",
        "103806.523000",
        "103807.534000",
        "103808.539000",
        "103809.515000",
        "103810.524000",
        "103811.525000",
        "103812.526000",
        "103813.518000",
        "103814.539000",
        "103815.527000",
        "103816.576000",
        "103817.542000",
        "103818.542000",
        "103819.526000",
        "103820.512000",
        "103821.526000",
        "103822.557000",
        "103823.561000",
        "103824.529000",
        "103825.535000",
        "103826.559000",
        "103827.572000",
        "103828.547000",
        "103829.542000",
        "103830.529000",
        "103831.580000",
        "103832.520000",
        "103833.530000",
        "103834.526000",
        "103835.539000",
        "103836.519000",
        "103837.529000",
        "103838.543000",
        "103839.575000",
        "103840.555000",
        "103841.520000",
        "103842.532000",
        "103843.564000",
        "103844.553000",
        "103845.533000",
        "103846.520000",
        "103847.570000",
        "103848.532000",
        "103849.526000",
        "103850.547000",
        "103851.555000",
        "103852.524000",
        "103853.549000",
        "103854.568000"
      ],
      "InstanceCreationTime": [
        "103407.713000",
        "103408.549000",
        "103409.546000",
        "103410.541000",
        "103411.530000",
        "103412.518000",
        "103413.537000",
        "103414.514000",
        "103415.558000",
        "103416.602000",
        "103417.575000",
        "103418.541000",
        "103419.549000",
        "103420.540000",
        "103421.533000",
        "103422.536000",
        "103423.527000",
        "103424.557000",
        "103425.541000",
        "103426.534000",
        "103427.552000",
        "103428.534000",
        "103429.527000",
        "103430.528000",
        "103431.515000",
        "103432.544000",
        "103433.536000",
        "103434.568000",
        "103435.543000",
        "103436.530000",
        "103437.525000",
        "103438.511000",
        "103439.516000",
        "103440.534000",
        "103441.527000",
        "103442.525000",
        "103443.530000",
        "103444.518000",
        "103445.528000",
        "103446.509000",
        "103447.540000",
        "103448.525000",
        "103449.530000",
        "103450.534000",
        "103451.535000",
        "103452.558000",
        "103453.537000",
        "103454.557000",
        "103455.526000",
        "103456.551000",
        "103457.534000",
        "103458.560000",
        "103459.547000",
        "103500.542000",
        "103501.533000",
        "103502.534000",
        "103503.524000",
        "103504.588000",
        "103505.549000",
        "103506.530000",
        "103507.520000",
        "103508.509000",
        "103509.541000",
        "103510.544000",
        "103511.535000",
        "103512.559000",
        "103513.544000",
        "103514.519000",
        "103515.540000",
        "103516.530000",
        "103517.529000",
        "103518.544000",
        "103519.530000",
        "103520.557000",
        "103521.569000",
        "103522.530000",
        "103523.545000",
        "103524.531000",
        "103525.534000",
        "103526.524000",
        "103527.529000",
        "103528.527000",
        "103529.523000",
        "103530.550000",
        "103531.518000",
        "103532.541000",
        "103533.561000",
        "103534.550000",
        "103535.560000",
        "103536.544000",
        "103537.546000",
        "103538.549000",
        "103539.552000",
        "103540.563000",
        "103541.509000",
        "103542.563000",
        "103543.508000",
        "103544.518000",
        "103545.525000",
        "103546.571000",
        "103547.535000",
        "103548.518000",
        "103549.565000",
        "103550.523000",
        "103551.509000",
        "103552.569000",
        "103553.541000",
        "103554.533000",
        "103555.578000",
        "103556.563000",
        "103557.534000",
        "103558.575000",
        "103559.538000",
        "103600.530000",
        "103601.517000",
        "103602.505000",
        "103603.532000",
        "103604.527000",
        "103605.583000",
        "103606.528000",
        "103607.540000",
        "103608.542000",
        "103609.506000",
        "103610.508000",
        "103611.592000",
        "103612.534000",
        "103613.546000",
        "103614.576000",
        "103615.537000",
        "103616.540000",
        "103617.553000",
        "103618.538000",
        "103619.548000",
        "103620.533000",
        "103621.565000",
        "103622.532000",
        "103623.590000",
        "103624.542000",
        "103625.550000",
        "103626.568000",
        "103627.554000",
        "103628.557000",
        "103629.502000",
        "103630.524000",
        "103631.554000",
        "103632.547000",
        "103633.557000",
        "103634.522000",
        "103635.555000",
        "103636.543000",
        "103637.531000",
        "103638.530000",
        "103639.547000",
        "103640.547000",
        "103641.531000",
        "103642.544000",
        "103643.518000",
        "103644.546000",
        "103645.528000",
        "103646.529000",
        "103647.533000",
        "103648.544000",
        "103649.582000",
        "103650.558000",
        "103651.526000",
        "103652.518000",
        "103653.536000",
        "103654.591000",
        "103655.525000",
        "103656.538000",
        "103657.533000",
        "103658.556000",
        "103659.537000",
        "103700.539000",
        "103701.591000",
        "103702.545000",
        "103703.513000",
        "103704.522000",
        "103705.544000",
        "103706.551000",
        "103707.519000",
        "103708.531000",
        "103709.533000",
        "103710.540000",
        "103711.529000",
        "103712.554000",
        "103713.532000",
        "103714.546000",
        "103715.552000",
        "103716.558000",
        "103717.511000",
        "103718.527000",
        "103719.546000",
        "103720.542000",
        "103721.570000",
        "103722.528000",
        "103723.563000",
        "103724.549000",
        "103725.508000",
        "103726.530000",
        "103727.541000",
        "103728.523000",
        "103729.538000",
        "103730.523000",
        "103731.532000",
        "103732.539000",
        "103733.536000",
        "103734.530000",
        "103735.538000",
        "103736.581000",
        "103737.533000",
        "103738.519000",
        "103739.562000",
        "103740.539000",
        "103741.537000",
        "103742.527000",
        "103743.543000",
        "103744.516000",
        "103745.526000",
        "103746.552000",
        "103747.543000",
        "103748.547000",
        "103749.529000",
        "103750.534000",
        "103751.551000",
        "103752.510000",
        "103753.540000",
        "103754.568000",
        "103755.563000",
        "103756.575000",
        "103757.534000",
        "103758.537000",
        "103759.528000",
        "103800.552000",
        "103801.527000",
        "103802.549000",
        "103803.577000",
        "103804.538000",
        "103805.548000",
        "103806.523000",
        "103807.534000",
        "103808.539000",
        "103809.515000",
        "103810.524000",
        "103811.525000",
        "103812.526000",
        "103813.518000",
        "103814.539000",
        "103815.527000",
        "103816.576000",
        "103817.542000",
        "103818.542000",
        "103819.526000",
        "103820.512000",
        "103821.526000",
        "103822.557000",
        "103823.561000",
        "103824.529000",
        "103825.535000",
        "103826.559000",
        "103827.572000",
        "103828.547000",
        "103829.542000",
        "103830.529000",
        "103831.580000",
        "103832.520000",
        "103833.530000",
        "103834.526000",
        "103835.539000",
        "103836.519000",
        "103837.529000",
        "103838.543000",
        "103839.575000",
        "103840.555000",
        "103841.520000",
        "103842.532000",
        "103843.564000",
        "103844.553000",
        "103845.533000",
        "103846.520000",
        "103847.570000",
        "103848.532000",
        "103849.526000",
        "103850.547000",
        "103851.555000",
        "103852.524000",
        "103853.549000",
        "103854.568000"
      ],
      "InstanceNumber": [
        1,
        2,
        3,
        4,
        5,
        6,
        7,
        8,
        9,
        10,
        11,
        12,
        13,
        14,
        15,
        16,
        17,
        18,
        19,
        20,
        21,
        22,
        23,
        24,
        25,
        26,
        27,
        28,
        29,
        30,
        31,
        32,
        33,
        34,
        35,
        36,
        37,
        38,
        39,
        40,
        41,
        42,
        43,
        44,
        45,
        46,
        47,
        48,
        49,
        50,
        51,
        52,
        53,
        54,
        55,
        56,
        57,
        58,
        59,
        60,
        61,
        62,
        63,
        64,
        65,
        66,
        67,
        68,
        69,
        70,
        71,
        72,
        73,
        74,
        75,
        76,
        77,
        78,
        79,
        80,
        81,
        82,
        83,
        84,
        85,
        86,
        87,
        88,
        89,
        90,
        91,
        92,
        93,
        94,
        95,
        96,
        97,
        98,
        99,
        100,
        101,
        102,
        103,
        104,
        105,
        106,
        107,
        108,
        109,
        110,
        111,
        112,
        113,
        114,
        115,
        116,
        117,
        118,
        119,
        120,
        121,
        122,
        123,
        124,
        125,
        126,
        127,
        128,
        129,
        130,
        131,
        132,
        133,
        134,
        135,
        136,
        137,
        138,
        139,
        140,
        141,
        142,
        143,
        144,
        145,
        146,
        147,
        148,
        149,
        150,
        151,
        152,
        153,
        154,
        155,
        156,
        157,
