{
  "AcquisitionMatrixPE": 96,
  "AcquisitionNumber": 1,
  "AcquisitionTime": "11:00:10.515000",
  "BandwidthPerPixelPhaseEncode": 18.939,
  "BaseResolution": 96,
  "BodyPartExamined": "BRAIN",
  "ConsistencyInfo": "N4_VE11C_LATEST_20160120",
  "ConversionSoftware": "dcm2niix",
  "ConversionSoftwareVersion": "v1.0.20171215 (OpenJPEG build) GCC6.3.0",
  "DerivedVendorReportedEchoSpacing": 0.000550011,
  "DeviceSerialNumber": "66112",
  "DwellTime": 2.2e-06,
  "EchoTime": 0.033,
  "EchoTrainLength": 96,
  "EffectiveEchoSpacing": 0.000550011,
  "FlipAngle": 59,
  "ImageOrientationPatientDICOM": [0.997692, 0.0505205, -0.0453606, -0.0536838, 0.995998, -0.0714622],
  "ImageType": [
    "ORIGINAL",
    "PRIMARY",
    "FMRI",
    "NONE",
    "ND",
    "NORM",
    "MOSAIC"
],
  "InPlanePhaseEncodingDirectionDICOM": "COL",
  "InstitutionAddress": "Maynard_3_Hanover_NH_US_03755",
  "InstitutionName": "Dartmouth_College_-_PBS",
  "InstitutionalDepartmentName": "Department",
  "MRAcquisitionType": "2D",
  "MagneticFieldStrength": 3,
  "Manufacturer": "Siemens",
  "ManufacturersModelName": "Prisma",
  "Modality": "MR",
  "MultibandAccelerationFactor": 4,
  "PartialFourier": 1,
  "PatientPosition": "HFS",
  "PercentPhaseFOV": 100,
  "PhaseEncodingDirection": "j-",
  "PhaseEncodingSteps": 96,
  "PhaseResolution": 1,
  "PixelBandwidth": 2365,
  "ProcedureStepDescription": "Gobbini_Matteo_1038_hyperface",
  "ProtocolName": "func_run-07_task-visualmemory",
  "PulseSequenceDetails": "%SiemensSeq%_ep2d_bold",
  "ReceiveCoilActiveElements": "HEA;HEP",
  "ReceiveCoilName": "Head_32",
  "ReconMatrixPE": 96,
  "RepetitionTime": 1,
  "SAR": 0.0492923,
  "ScanOptions": "FS",
  "ScanningSequence": "EP",
  "SequenceName": "_epfid2d1_96",
  "SequenceVariant": "SK",
  "SeriesDescription": "func_run-07_task-visualmemory",
  "SeriesNumber": 49,
  "ShimSetting": [4131, -7693, -7292, 670, -11, -54, 65, 94],
  "SliceThickness": 2.5,
  "SliceTiming": [0.735, 0, 0.49, 0.0825, 0.5725, 0.165, 0.655, 0.3275, 0.8175, 0.41, 0.9, 0.245, 0.735, 0, 0.49, 0.0825, 0.5725, 0.165, 0.655, 0.3275, 0.8175, 0.41, 0.9, 0.245, 0.735, 0, 0.49, 0.0825, 0.5725, 0.165, 0.655, 0.3275, 0.8175, 0.41, 0.9, 0.245, 0.735, 0, 0.49, 0.0825, 0.5725, 0.165, 0.655, 0.3275, 0.8175, 0.41, 0.9, 0.245],
  "SoftwareVersions": "syngo_MR_E11",
  "SpacingBetweenSlices": 2.5,
  "StationName": "AWP66112",
  "TotalReadoutTime": 0.0522511,
  "TxRefAmp": 259.734,
  "dcmmeta_affine": [
    [-2.4942309856414795, -0.13420946896076202, -0.10392171889543533, 130.73768615722656],
    [-0.1263013631105423, 2.4899940490722656, -0.18433110415935516, -99.98025512695312],
    [-0.1134013757109642, 0.17865554988384247, 2.491028308868408, -77.36064910888672],
    [0.0, 0.0, 0.0, 1.0]
],
  "dcmmeta_reorient_transform": [
    [0.0, -1.0, 0.0, 95.0],
    [1.0, 0.0, 0.0, 0.0],
    [0.0, 0.0, 1.0, 0.0],
    [0.0, 0.0, 0.0, 1.0]
],
  "dcmmeta_shape": [96, 96, 48, 288],
  "dcmmeta_slice_dim": 2,
  "dcmmeta_version": 0.6,
  "global": {
    "const": {
      "AccessionNumber": "A001345",
      "AcquisitionMatrix": [96, 0, 0, 96],
      "AngioFlag": "N",
      "BitsAllocated": 16,
      "BitsStored": 12,
      "BodyPartExamined": "BRAIN",
      "Columns": 672,
      "EchoNumbers": 1,
      "EchoTime": 33.0,
      "EchoTrainLength": 96,
      "FlipAngle": 59.0,
      "HighBit": 11,
      "ImageOrientationPatient": [0.99769238499028, 0.0505205455783, -0.0453605490144, -0.0536837888293, 0.99599759120535, -0.0714622216984],
      "ImagePositionPatient": [-797.67397021448, -890.06222964162, 23.724022906555],
      "ImageType": [
        "ORIGINAL",
        "PRIMARY",
        "FMRI",
        "NONE",
        "ND",
        "NORM",
        "MOSAIC"
],
      "ImagedNucleus": "1H",
      "ImagingFrequency": 123.252315,
      "InPlanePhaseEncodingDirection": "COL",
      "MRAcquisitionType": "2D",
      "MagneticFieldStrength": 3.0,
      "Manufacturer": "SIEMENS",
      "ManufacturerModelName": "Prisma",
      "Modality": "MR",
      "NumberOfAverages": 1.0,
      "NumberOfPhaseEncodingSteps": 96,
      "PercentPhaseFieldOfView": 100.0,
      "PercentSampling": 100.0,
      "PerformedProcedureStepStartTime": "101956.908000",
      "PhotometricInterpretation": "MONOCHROME2",
      "PixelBandwidth": 2365.0,
      "PixelRepresentation": 0,
      "PixelSpacing": [2.5, 2.5],
      "PositionReferenceIndicator": "",
      "ProtocolName": "func_run-07_task-visualmemory",
      "RepetitionTime": 1000.0,
      "Rows": 672,
      "SAR": 0.0492922837967,
      "SamplesPerPixel": 1,
      "ScanOptions": "FS",
      "ScanningSequence": "EP",
      "SequenceName": "*epfid2d1_96",
      "SequenceVariant": "SK",
      "SeriesDescription": "func_run-07_task-visualmemory",
      "SeriesNumber": 49,
      "SeriesTime": "110011.535000",
      "SliceLocation": -75.145834508731,
      "SliceThickness": 2.5,
      "SmallestImagePixelValue": 0,
      "SoftwareVersions": "syngo MR E11",
      "SpacingBetweenSlices": 2.4999999524808,
      "SpecificCharacterSet": "ISO_IR 100",
      "StudyID": "3",
      "StudyTime": "101956.857000",
      "TransmitCoilName": "Body",
      "VariableFlipAngleFlag": "N",
      "WindowCenterWidthExplanation": "Algo1",
      "dBdt": 0.0},
    "slices": {}
  },
  "time": {
    "samples": {
      "AcquisitionNumber": [1, 2, 3, 4, 5, 6, 7, 8, 9, 10, 11, 12, 13, 14, 15, 16, 17, 18, 19, 20, 21, 22, 23, 24, 25, 26, 27, 28, 29, 30, 31, 32, 33, 34, 35, 36, 37, 38, 39, 40, 41, 42, 43, 44, 45, 46, 47, 48, 49, 50, 51, 52, 53, 54, 55, 56, 57, 58, 59, 60, 61, 62, 63, 64, 65, 66, 67, 68, 69, 70, 71, 72, 73, 74, 75, 76, 77, 78, 79, 80, 81, 82, 83, 84, 85, 86, 87, 88, 89, 90, 91, 92, 93, 94, 95, 96, 97, 98, 99, 100, 101, 102, 103, 104, 105, 106, 107, 108, 109, 110, 111, 112, 113, 114, 115, 116, 117, 118, 119, 120, 121, 122, 123, 124, 125, 126, 127, 128, 129, 130, 131, 132, 133, 134, 135, 136, 137, 138, 139, 140, 141, 142, 143, 144, 145, 146, 147, 148, 149, 150, 151, 152, 153, 154, 155, 156, 157, 158, 159, 160, 161, 162, 163, 164, 165, 166, 167, 168, 169, 170, 171, 172, 173, 174, 175, 176, 177, 178, 179, 180, 181, 182, 183, 184, 185, 186, 187, 188, 189, 190, 191, 192, 193, 194, 195, 196, 197, 198, 199, 200, 201, 202, 203, 204, 205, 206, 207, 208, 209, 210, 211, 212, 213, 214, 215, 216, 217, 218, 219, 220, 221, 222, 223, 224, 225, 226, 227, 228, 229, 230, 231, 232, 233, 234, 235, 236, 237, 238, 239, 240, 241, 242, 243, 244, 245, 246, 247, 248, 249, 250, 251, 252, 253, 254, 255, 256, 257, 258, 259, 260, 261, 262, 263, 264, 265, 266, 267, 268, 269, 270, 271, 272, 273, 274, 275, 276, 277, 278, 279, 280, 281, 282, 283, 284, 285, 286, 287, 288],
      "AcquisitionTime": ["110010.515000", "110011.515000", "110012.515000", "110013.515000", "110014.515000", "110015.515000", "110016.515000", "110017.515000", "110018.515000", "110019.515000", "110020.515000", "110021.515000", "110022.515000", "110023.515000", "110024.515000", "110025.515000", "110026.515000", "110027.515000", "110028.515000", "110029.515000", "110030.515000", "110031.515000", "110032.515000", "110033.515000", "110034.515000", "110035.515000", "110036.515000", "110037.515000", "110038.515000", "110039.515000", "110040.515000", "110041.515000", "110042.515000", "110043.515000", "110044.515000", "110045.515000", "110046.515000", "110047.515000", "110048.515000", "110049.515000", "110050.515000", "110051.515000", "110052.515000", "110053.515000", "110054.515000", "110055.515000", "110056.515000", "110057.515000", "110058.515000", "110059.515000", "110100.515000", "110101.515000", "110102.515000", "110103.515000", "110104.515000", "110105.515000", "110106.515000", "110107.515000", "110108.515000", "110109.515000", "110110.515000", "110111.515000", "110112.515000", "110113.515000", "110114.515000", "110115.515000", "110116.515000", "110117.515000", "110118.515000", "110119.515000", "110120.515000", "110121.515000", "110122.515000", "110123.515000", "110124.515000", "110125.515000", "110126.515000", "110127.515000", "110128.515000", "110129.515000", "110130.515000", "110131.515000", "110132.515000", "110133.515000", "110134.515000", "110135.515000", "110136.515000", "110137.515000", "110138.515000", "110139.515000", "110140.515000", "110141.515000", "110142.515000", "110143.515000", "110144.515000", "110145.515000", "110146.515000", "110147.515000", "110148.515000", "110149.515000", "110150.515000", "110151.515000", "110152.515000", "110153.515000", "110154.515000", "110155.515000", "110156.515000", "110157.515000", "110158.515000", "110159.515000", "110200.515000", "110201.515000", "110202.515000", "110203.515000", "110204.515000", "110205.515000", "110206.515000", "110207.515000", "110208.515000", "110209.515000", "110210.515000", "110211.515000", "110212.515000", "110213.515000", "110214.515000", "110215.515000", "110216.515000", "110217.515000", "110218.515000", "110219.515000", "110220.515000", "110221.515000", "110222.515000", "110223.515000", "110224.515000", "110225.515000", "110226.515000", "110227.515000", "110228.515000", "110229.515000", "110230.515000", "110231.515000", "110232.515000", "110233.515000", "110234.515000", "110235.515000", "110236.515000", "110237.515000", "110238.515000", "110239.515000", "110240.515000", "110241.515000", "110242.515000", "110243.515000", "110244.515000", "110245.515000", "110246.515000", "110247.515000", "110248.515000", "110249.515000", "110250.515000", "110251.515000", "110252.515000", "110253.515000", "110254.515000", "110255.515000", "110256.515000", "110257.515000", "110258.515000", "110259.515000", "110300.515000", "110301.515000", "110302.515000", "110303.515000", "110304.515000", "110305.515000", "110306.515000", "110307.515000", "110308.515000", "110309.515000", "110310.515000", "110311.515000", "110312.515000", "110313.515000", "110314.515000", "110315.515000", "110316.515000", "110317.515000", "110318.515000", "110319.515000", "110320.515000", "110321.515000", "110322.515000", "110323.515000", "110324.515000", "110325.515000", "110326.515000", "110327.515000", "110328.515000", "110329.515000", "110330.515000", "110331.515000", "110332.515000", "110333.515000", "110334.515000", "110335.515000", "110336.515000", "110337.515000", "110338.515000", "110339.515000", "110340.515000", "110341.515000", "110342.515000", "110343.515000", "110344.515000", "110345.515000", "110346.515000", "110347.515000", "110348.515000", "110349.515000", "110350.515000", "110351.515000", "110352.515000", "110353.515000", "110354.515000", "110355.515000", "110356.515000", "110357.515000", "110358.515000", "110359.515000", "110400.515000", "110401.515000", "110402.515000", "110403.515000", "110404.515000", "110405.515000", "110406.515000", "110407.515000", "110408.515000", "110409.515000", "110410.515000", "110411.515000", "110412.515000", "110413.515000", "110414.515000", "110415.515000", "110416.515000", "110417.515000", "110418.515000", "110419.515000", "110420.515000", "110421.515000", "110422.515000", "110423.515000", "110424.515000", "110425.515000", "110426.515000", "110427.515000", "110428.515000", "110429.515000", "110430.515000", "110431.515000", "110432.515000", "110433.515000", "110434.515000", "110435.515000", "110436.515000", "110437.515000", "110438.515000", "110439.515000", "110440.515000", "110441.515000", "110442.515000", "110443.515000", "110444.515000", "110445.515000", "110446.515000", "110447.515000", "110448.515000", "110449.515000", "110450.515000", "110451.515000", "110452.515000", "110453.515000", "110454.515000", "110455.515000", "110456.515000", "110457.515000"],
      "ContentTime": ["110011.539000", "110012.398000", "110013.379000", "110014.367000", "110015.378000", "110016.374000", "110017.354000", "110018.365000", "110019.404000", "110020.379000", "110021.387000", "110022.363000", "110023.364000", "110024.369000", "110025.362000", "110026.377000", "110027.356000", "110028.355000", "110029.355000", "110030.365000", "110031.374000", "110032.356000", "110033.367000", "110034.381000", "110035.366000", "110036.373000", "110037.375000", "110038.398000", "110039.378000", "110040.424000", "110041.333000", "110042.370000", "110043.453000", "110044.392000", "110045.352000", "110046.381000", "110047.480000", "110048.369000", "110049.365000", "110050.358000", "110051.365000", "110052.373000", "110053.383000", "110054.348000", "110055.362000", "110056.381000", "110057.396000", "110058.390000", "110059.375000", "110100.369000", "110101.384000", "110102.374000", "110103.365000", "110104.368000", "110105.351000", "110106.364000", "110107.360000", "110108.369000", "110109.376000", "110110.372000", "110111.382000", "110112.362000", "110113.372000", "110114.376000", "110115.371000", "110116.360000", "110117.387000", "110118.347000", "110119.359000", "110120.375000", "110121.407000", "110122.381000", "110123.416000", "110124.404000", "110125.367000", "110126.368000", "110127.368000", "110128.359000", "110129.365000", "110130.368000", "110131.336000", "110132.381000", "110133.361000", "110134.351000", "110135.358000", "110136.368000", "110137.341000", "110138.361000", "110139.363000", "110140.408000", "110141.355000", "110142.368000", "110143.359000", "110144.366000", "110145.390000", "110146.348000", "110147.371000", "110148.372000", "110149.373000", "110150.364000", "110151.383000", "110152.379000", "110153.387000", "110154.385000", "110155.372000", "110156.366000", "110157.367000", "110158.373000", "110159.369000", "110200.418000", "110201.346000", "110202.374000", "110203.367000", "110204.343000", "110205.409000", "110206.401000", "110207.346000", "110208.366000", "110209.358000", "110210.360000", "110211.378000", "110212.373000", "110213.384000", "110214.375000", "110215.377000", "110216.408000", "110217.359000", "110218.361000", "110219.345000", "110220.366000", "110221.368000", "110222.438000", "110223.394000", "110224.374000", "110225.378000", "110226.376000", "110227.371000", "110228.383000", "110229.363000", "110230.348000", "110231.358000", "110232.354000", "110233.376000", "110234.366000", "110235.378000", "110236.387000", "110237.379000", "110238.376000", "110239.365000", "110240.346000", "110241.368000", "110242.366000", "110243.373000", "110244.421000", "110245.376000", "110246.351000", "110247.369000", "110248.367000", "110249.368000", "110250.357000", "110251.372000", "110252.359000", "110253.352000", "110254.370000", "110255.365000", "110256.378000", "110257.384000", "110258.389000", "110259.349000", "110300.355000", "110301.345000", "110302.365000", "110303.409000", "110304.380000", "110305.393000", "110306.351000", "110307.383000", "110308.387000", "110309.346000", "110310.361000", "110311.363000", "110312.375000", "110313.359000", "110314.356000", "110315.361000", "110316.391000", "110317.397000", "110318.357000", "110319.384000", "110320.403000", "110321.386000", "110322.373000", "110323.408000", "110324.405000", "110325.363000", "110326.366000", "110327.358000", "110328.394000", "110329.381000", "110330.414000", "110331.346000", "110332.355000", "110333.380000", "110334.357000", "110335.375000", "110336.379000", "110337.402000", "110338.416000", "110339.393000", "110340.374000", "110341.379000", "110342.383000", "110343.377000", "110344.376000", "110345.342000", "110346.374000", "110347.360000", "110348.388000", "110349.360000", "110350.371000", "110351.333000", "110352.359000", "110353.333000", "110354.376000", "110355.413000", "110356.356000", "110357.354000", "110358.427000", "110359.360000", "110400.361000", "110401.383000", "110402.368000", "110403.369000", "110404.366000", "110405.398000", "110406.346000", "110407.364000", "110408.422000", "110409.383000", "110410.407000", "110411.406000", "110412.353000", "110413.366000", "110414.379000", "110415.372000", "110416.366000", "110417.414000", "110418.375000", "110419.377000", "110420.386000", "110421.346000", "110422.347000", "110423.369000", "110424.412000", "110425.399000", "110426.395000", "110427.357000", "110428.395000", "110429.399000", "110430.395000", "110431.397000", "110432.470000", "110433.363000", "110434.418000", "110435.355000", "110436.392000", "110437.384000", "110438.351000", "110439.387000", "110440.383000", "110441.395000", "110442.379000", "110443.378000", "110444.372000", "110445.365000", "110446.381000", "110447.376000", "110448.398000", "110449.376000", "110450.367000", "110451.387000", "110452.412000", "110453.380000", "110454.377000", "110455.377000", "110456.371000", "110457.358000", "110458.404000"],
      "InstanceCreationTime": ["110011.539000", "110012.398000", "110013.379000", "110014.367000", "110015.378000", "110016.374000", "110017.354000", "110018.365000", "110019.404000", "110020.379000", "110021.387000", "110022.363000", "110023.364000", "110024.369000", "110025.362000", "110026.377000", "110027.356000", "110028.355000", "110029.355000", "110030.365000", "110031.374000", "110032.356000", "110033.367000", "110034.381000", "110035.366000", "110036.373000", "110037.375000", "110038.398000", "110039.378000", "110040.424000", "110041.333000", "110042.370000", "110043.453000", "110044.392000", "110045.352000", "110046.381000", "110047.480000", "110048.369000", "110049.365000", "110050.358000", "110051.365000", "110052.373000", "110053.383000", "110054.348000", "110055.362000", "110056.381000", "110057.396000", "110058.390000", "110059.375000", "110100.369000", "110101.384000", "110102.374000", "110103.365000", "110104.368000", "110105.351000", "110106.364000", "110107.360000", "110108.369000", "110109.376000", "110110.372000", "110111.382000", "110112.362000", "110113.372000", "110114.376000", "110115.371000", "110116.360000", "110117.387000", "110118.347000", "110119.359000", "110120.375000", "110121.407000", "110122.381000", "110123.416000", "110124.404000", "110125.367000", "110126.368000", "110127.368000", "110128.359000", "110129.365000", "110130.368000", "110131.336000", "110132.381000", "110133.361000", "110134.351000", "110135.358000", "110136.368000", "110137.341000", "110138.361000", "110139.363000", "110140.408000", "110141.355000", "110142.368000", "110143.359000", "110144.366000", "110145.390000", "110146.348000", "110147.371000", "110148.372000", "110149.373000", "110150.364000", "110151.383000", "110152.379000", "110153.387000", "110154.385000", "110155.372000", "110156.366000", "110157.367000", "110158.373000", "110159.369000", "110200.418000", "110201.346000", "110202.374000", "110203.367000", "110204.343000", "110205.409000", "110206.401000", "110207.346000", "110208.366000", "110209.358000", "110210.360000", "110211.378000", "110212.373000", "110213.384000", "110214.375000", "110215.377000", "110216.408000", "110217.359000", "110218.361000", "110219.345000", "110220.366000", "110221.368000", "110222.438000", "110223.394000", "110224.374000", "110225.378000", "110226.376000", "110227.371000", "110228.383000", "110229.363000", "110230.348000", "110231.358000", "110232.354000", "110233.376000", "110234.366000", "110235.378000", "110236.387000", "110237.379000", "110238.376000", "110239.365000", "110240.346000", "110241.368000", "110242.366000", "110243.373000", "110244.421000", "110245.376000", "110246.351000", "110247.369000", "110248.367000", "110249.368000", "110250.357000", "110251.372000", "110252.359000", "110253.352000", "110254.370000", "110255.365000", "110256.378000", "110257.384000", "110258.389000", "110259.349000", "110300.355000", "110301.345000", "110302.365000", "110303.409000", "110304.380000", "110305.393000", "110306.351000", "110307.383000", "110308.387000", "110309.346000", "110310.361000", "110311.363000", "110312.375000", "110313.359000", "110314.356000", "110315.361000", "110316.391000", "110317.397000", "110318.357000", "110319.384000", "110320.403000", "110321.386000", "110322.373000", "110323.408000", "110324.405000", "110325.363000", "110326.366000", "110327.358000", "110328.394000", "110329.381000", "110330.414000", "110331.346000", "110332.355000", "110333.380000", "110334.357000", "110335.375000", "110336.379000", "110337.402000", "110338.416000", "110339.393000", "110340.374000", "110341.379000", "110342.383000", "110343.377000", "110344.376000", "110345.342000", "110346.374000", "110347.360000", "110348.388000", "110349.360000", "110350.371000", "110351.333000", "110352.359000", "110353.333000", "110354.376000", "110355.413000", "110356.356000", "110357.354000", "110358.427000", "110359.360000", "110400.361000", "110401.383000", "110402.368000", "110403.369000", "110404.366000", "110405.398000", "110406.346000", "110407.364000", "110408.422000", "110409.383000", "110410.407000", "110411.406000", "110412.353000", "110413.366000", "110414.379000", "110415.372000", "110416.366000", "110417.414000", "110418.375000", "110419.377000", "110420.386000", "110421.346000", "110422.347000", "110423.369000", "110424.412000", "110425.399000", "110426.395000", "110427.357000", "110428.395000", "110429.399000", "110430.395000", "110431.397000", "110432.470000", "110433.363000", "110434.418000", "110435.355000", "110436.392000", "110437.384000", "110438.351000", "110439.387000", "110440.383000", "110441.395000", "110442.379000", "110443.378000", "110444.372000", "110445.365000", "110446.381000", "110447.376000", "110448.398000", "110449.376000", "110450.367000", "110451.387000", "110452.412000", "110453.380000", "110454.377000", "110455.377000", "110456.371000", "110457.358000", "110458.404000"],
      "InstanceNumber": [1, 2, 3, 4, 5, 6, 7, 8, 9, 10, 11, 12, 13, 14, 15, 16, 17, 18, 19, 20, 21, 22, 23, 24, 25, 26, 27, 28, 29, 30, 31, 32, 33, 34, 35, 36, 37, 38, 39, 40, 41, 42, 43, 44, 45, 46, 47, 48, 49, 50, 51, 52, 53, 54, 55, 56, 57, 58, 59, 60, 61, 62, 63, 64, 65, 66, 67, 68, 69, 70, 71, 72, 73, 74, 75, 76, 77, 78, 79, 80, 81, 82, 83, 84, 85, 86, 87, 88, 89, 90, 91, 92, 93, 94, 95, 96, 97, 98, 99, 100, 101, 102, 103, 104, 105, 106, 107, 108, 109, 110, 111, 112, 113, 114, 115, 116, 117, 118, 119, 120, 121, 122, 123, 124, 125, 126, 127, 128, 129, 130, 131, 132, 133, 134, 135, 136, 137, 138, 139, 140, 141, 142, 143, 144, 145, 146, 147, 148, 149, 150, 151, 152, 153, 154, 155, 156, 157, 158, 159, 160, 161, 162, 163, 164, 165, 166, 167, 168, 169, 170, 171, 172, 173, 174, 175, 176, 177, 178, 179, 180, 181, 182, 183, 184, 185, 186, 187, 188, 189, 190, 191, 192, 193, 194, 195, 196, 197, 198, 199, 200, 201, 202, 203, 204, 205, 206, 207, 208, 209, 210, 211, 212, 213, 214, 215, 216, 217, 218, 219, 220, 221, 222, 223, 224, 225, 226, 227, 228, 229, 230, 231, 232, 233, 234, 235, 236, 237, 238, 239, 240, 241, 242, 243, 244, 245, 246, 247, 248, 249, 250, 251, 252, 253, 254, 255, 256, 257, 258, 259, 260, 261, 262, 263, 264, 265, 266, 267, 268, 269, 270, 271, 272, 273, 274, 275, 276, 277, 278, 279, 280, 281, 282, 283, 284, 285, 286, 287, 288],
      "LargestImagePixelValue": [1725, 933, 947, 972, 1150, 1165, 967, 1149, 1647, 1092, 1057, 980, 1067, 1186, 1139, 907, 1031, 1179, 1156, 1178, 1134, 1359, 975, 989, 1282, 1078, 1138, 1123, 1155, 1464, 1019, 1023, 875, 937, 1159, 1039, 1078, 1359, 1062, 1077, 939, 1396, 1422, 965, 983, 987, 1151, 1358, 1051, 1050, 956, 1182, 999, 1067, 1227, 1208, 1155, 1049, 998, 1189, 1169, 940, 889, 1384, 1111, 1077, 1238, 1598, 1057, 1158, 1035, 1317, 1350, 1005, 1023, 1271, 1098, 1181, 915, 940, 1362, 1092, 1127, 894, 1226, 1560, 1003, 1028, 889, 1145, 1512, 948, 1033, 930, 966, 1250, 939, 894, 811, 1067, 1401, 1035, 1433, 1582, 1520, 1242, 1062, 983, 1009, 1222, 1209, 991, 1178, 1384, 1199, 923, 930, 1127, 1190, 1007, 1014, 1286, 1290, 1350, 963, 1131, 1064, 1133, 1021, 892, 1190, 1245, 999, 1170, 1413, 1256, 1258, 1283, 1063, 1080, 1580, 948, 1001, 944, 1124, 1210, 955, 920, 1324, 1112, 1153, 948, 945, 1434, 1093, 1149, 984, 948, 1239, 963, 1004, 1038, 1157, 1005, 1047, 1242, 1203, 943, 875, 1269, 1033, 1038, 1551, 1066, 1116, 995, 933, 1185, 1025, 1051, 1061, 1318, 1158, 1173, 802, 898, 813, 1223, 970, 1215, 1583, 1531, 1039, 1023, 1005, 1259, 1073, 1081, 896, 1081, 1272, 937, 987, 1264, 1197, 1174, 988, 936, 1113, 1233, 998, 1086, 1201, 1534, 1047, 1090, 887, 1098, 1216, 1121, 986, 1111, 1591, 1104, 1077, 1107, 1318, 1111, 1007, 1150, 1132, 1194, 932, 1075, 1415, 946, 1046, 914, 876, 940, 968, 945, 1275, 1011, 1131, 1009, 1502, 1049, 975, 777, 962, 1110, 1406, 1621, 1263, 1291, 1600, 1101, 916, 1100, 1260, 1223, 1504, 1084, 1086, 1097, 848, 940, 1326, 978, 988, 833, 1096, 1129, 1198, 902, 1189, 1428, 1293, 1040, 1552, 1634, 1094, 1041, 1135, 1173, 953, 1171],
      "WindowCenter": [400.0, 396.0, 396.0, 395.0, 396.0, 396.0, 395.0, 395.0, 397.0, 395.0, 395.0, 394.0, 395.0, 395.0, 395.0, 394.0, 395.0, 396.0, 396.0, 397.0, 395.0, 396.0, 395.0, 395.0, 397.0, 395.0, 396.0, 395.0, 395.0, 397.0, 395.0, 395.0, 394.0, 394.0, 396.0, 396.0, 396.0, 397.0, 396.0, 397.0, 395.0, 398.0, 397.0, 395.0, 395.0, 395.0, 395.0, 397.0, 395.0, 395.0, 395.0, 396.0, 395.0, 396.0, 397.0, 396.0, 396.0, 396.0, 395.0, 396.0, 396.0, 396.0, 395.0, 398.0, 396.0, 396.0, 397.0, 398.0, 396.0, 396.0, 395.0, 396.0, 397.0, 395.0, 395.0, 396.0, 396.0, 396.0, 395.0, 395.0, 397.0, 396.0, 396.0, 396.0, 396.0, 398.0, 395.0, 395.0, 394.0, 395.0, 397.0, 395.0, 395.0, 395.0, 395.0, 397.0, 395.0, 395.0, 395.0, 396.0, 399.0, 397.0, 399.0, 398.0, 397.0, 397.0, 396.0, 395.0, 395.0, 397.0, 397.0, 396.0, 396.0, 397.0, 396.0, 394.0, 393.0, 395.0, 396.0, 395.0, 396.0, 397.0, 397.0, 398.0, 395.0, 395.0, 395.0, 396.0, 396.0, 396.0, 397.0, 397.0, 396.0, 397.0, 397.0, 397.0, 397.0, 397.0, 396.0, 396.0, 398.0, 394.0, 395.0, 394.0, 395.0, 396.0, 395.0, 394.0, 396.0, 395.0, 396.0, 395.0, 395.0, 397.0, 395.0, 396.0, 395.0, 394.0, 396.0, 395.0, 395.0, 395.0, 396.0, 395.0, 395.0, 396.0, 396.0, 394.0, 394.0, 397.0, 395.0, 395.0, 397.0, 395.0, 395.0, 395.0, 394.0, 395.0, 395.0, 395.0, 396.0, 396.0, 395.0, 396.0, 394.0, 394.0, 395.0, 397.0, 396.0, 398.0, 398.0, 397.0, 395.0, 395.0, 395.0, 396.0, 395.0, 396.0, 394.0, 395.0, 396.0, 394.0, 395.0, 396.0, 396.0, 395.0, 395.0, 394.0, 395.0, 397.0, 395.0, 396.0, 395.0, 397.0, 395.0, 395.0, 394.0, 395.0, 396.0, 395.0, 395.0, 395.0, 398.0, 395.0, 395.0, 395.0, 396.0, 395.0, 395.0, 396.0, 396.0, 396.0, 395.0, 395.0, 397.0, 394.0, 395.0, 394.0, 394.0, 395.0, 396.0, 395.0, 398.0, 396.0, 397.0, 396.0, 398.0, 396.0, 395.0, 395.0, 396.0, 397.0, 399.0, 399.0, 398.0, 397.0, 398.0, 395.0, 394.0, 396.0, 398.0, 397.0, 397.0, 395.0, 395.0, 396.0, 394.0, 394.0, 396.0, 396.0, 396.0, 395.0, 397.0, 397.0, 397.0, 397.0, 397.0, 398.0, 397.0, 396.0, 398.0, 398.0, 395.0, 395.0, 395.0, 395.0, 395.0, 397.0],
      "WindowWidth": [844.0, 838.0, 839.0, 837.0, 838.0, 839.0, 837.0, 837.0, 839.0, 836.0, 836.0, 835.0, 836.0, 836.0, 836.0, 835.0, 836.0, 838.0, 838.0, 839.0, 837.0, 838.0, 836.0, 836.0, 838.0, 837.0, 838.0, 837.0, 836.0, 839.0, 836.0, 836.0, 835.0, 836.0, 838.0, 837.0, 838.0, 840.0, 838.0, 839.0, 837.0, 841.0, 839.0, 836.0, 837.0, 836.0, 837.0, 839.0, 837.0, 837.0, 837.0, 838.0, 836.0, 838.0, 839.0, 839.0, 838.0, 838.0, 836.0, 838.0, 838.0, 838.0, 837.0, 841.0, 839.0, 838.0, 839.0, 840.0, 838.0, 837.0, 836.0, 837.0, 839.0, 835.0, 835.0, 838.0, 838.0, 837.0, 836.0, 836.0, 840.0, 838.0, 838.0, 838.0, 838.0, 840.0, 836.0, 837.0, 836.0, 837.0, 840.0, 836.0, 837.0, 836.0, 836.0, 838.0, 837.0, 837.0, 837.0, 839.0, 843.0, 839.0, 843.0, 841.0, 839.0, 838.0, 838.0, 837.0, 836.0, 838.0, 839.0, 837.0, 838.0, 839.0, 838.0, 836.0, 834.0, 837.0, 838.0, 837.0, 837.0, 838.0, 839.0, 840.0, 836.0, 836.0, 836.0, 837.0, 838.0, 838.0, 840.0, 840.0, 838.0, 840.0, 839.0, 839.0, 839.0, 840.0, 837.0, 837.0, 840.0, 835.0, 836.0, 835.0, 836.0, 837.0, 836.0, 835.0, 838.0, 837.0, 838.0, 837.0, 836.0, 839.0, 837.0, 838.0, 836.0, 835.0, 838.0, 836.0, 836.0, 837.0, 838.0, 836.0, 836.0, 838.0, 837.0, 835.0, 834.0, 839.0, 837.0, 836.0, 839.0, 836.0, 836.0, 836.0, 834.0, 836.0, 836.0, 836.0, 837.0, 838.0, 836.0, 838.0, 835.0, 835.0, 836.0, 840.0, 838.0, 840.0, 841.0, 840.0, 836.0, 837.0, 836.0, 837.0, 837.0, 837.0, 835.0, 836.0, 838.0, 835.0, 836.0, 837.0, 837.0, 836.0, 837.0, 835.0, 837.0, 839.0, 836.0, 838.0, 836.0, 839.0, 836.0, 837.0, 835.0, 837.0, 838.0, 837.0, 836.0, 836.0, 840.0, 837.0, 837.0, 837.0, 838.0, 837.0, 836.0, 838.0, 837.0, 838.0, 836.0, 836.0, 839.0, 835.0, 837.0, 835.0, 835.0, 837.0, 839.0, 837.0, 841.0, 839.0, 839.0, 837.0, 840.0, 838.0, 837.0, 836.0, 838.0, 839.0, 842.0, 843.0, 842.0, 838.0, 840.0, 835.0, 836.0, 838.0, 841.0, 839.0, 839.0, 836.0, 836.0, 838.0, 836.0, 835.0, 838.0, 837.0, 838.0, 837.0, 839.0, 840.0, 840.0, 839.0, 840.0, 841.0, 840.0, 838.0, 841.0, 841.0, 837.0, 837.0, 836.0, 837.0, 836.0, 840.0]
    },
    "slices": {}
  }
}