{
  "AcquisitionMatrixPE": 96,
  "AcquisitionNumber": 1,
  "AcquisitionTime": "10:29:29.732500",
  "BandwidthPerPixelPhaseEncode": 18.939,
  "BaseResolution": 96,
  "BodyPartExamined": "BRAIN",
  "ConsistencyInfo": "N4_VE11C_LATEST_20160120",
  "ConversionSoftware": "dcm2niix",
  "ConversionSoftwareVersion": "v1.0.20171215 (OpenJPEG build) GCC6.3.0",
  "DerivedVendorReportedEchoSpacing": 0.000550011,
  "DeviceSerialNumber": "66112",
  "DwellTime": 2.2e-06,
  "EchoTime": 0.033,
  "EchoTrainLength": 96,
  "EffectiveEchoSpacing": 0.000550011,
  "FlipAngle": 59,
  "ImageOrientationPatientDICOM": [0.997692, 0.0505205, -0.0453606, -0.0536838, 0.995998, -0.0714622],
  "ImageType": [
    "ORIGINAL",
    "PRIMARY",
    "FMRI",
    "NONE",
    "ND",
    "NORM",
    "MOSAIC"
],
  "InPlanePhaseEncodingDirectionDICOM": "COL",
  "InstitutionAddress": "Maynard_3_Hanover_NH_US_03755",
  "InstitutionName": "Dartmouth_College_-_PBS",
  "InstitutionalDepartmentName": "Department",
  "MRAcquisitionType": "2D",
  "MagneticFieldStrength": 3,
  "Manufacturer": "Siemens",
  "ManufacturersModelName": "Prisma",
  "Modality": "MR",
  "MultibandAccelerationFactor": 4,
  "PartialFourier": 1,
  "PatientPosition": "HFS",
  "PercentPhaseFOV": 100,
  "PhaseEncodingDirection": "j-",
  "PhaseEncodingSteps": 96,
  "PhaseResolution": 1,
  "PixelBandwidth": 2365,
  "ProcedureStepDescription": "Gobbini_Matteo_1038_hyperface",
  "ProtocolName": "func_run-01_task-localizer",
  "PulseSequenceDetails": "%SiemensSeq%_ep2d_bold",
  "ReceiveCoilActiveElements": "HEA;HEP",
  "ReceiveCoilName": "Head_32",
  "ReconMatrixPE": 96,
  "RepetitionTime": 1,
  "SAR": 0.0491744,
  "ScanOptions": "FS",
  "ScanningSequence": "EP",
  "SequenceName": "_epfid2d1_96",
  "SequenceVariant": "SK",
  "SeriesDescription": "func_run-01_task-localizer",
  "SeriesNumber": 7,
  "ShimSetting": [4131, -7693, -7292, 670, -11, -54, 65, 94],
  "SliceThickness": 2.5,
  "SliceTiming": [0.735, 0, 0.49, 0.08, 0.57, 0.1625, 0.6525, 0.325, 0.815, 0.4075, 0.8975, 0.245, 0.735, 0, 0.49, 0.08, 0.57, 0.1625, 0.6525, 0.325, 0.815, 0.4075, 0.8975, 0.245, 0.735, 0, 0.49, 0.08, 0.57, 0.1625, 0.6525, 0.325, 0.815, 0.4075, 0.8975, 0.245, 0.735, 0, 0.49, 0.08, 0.57, 0.1625, 0.6525, 0.325, 0.815, 0.4075, 0.8975, 0.245],
  "SoftwareVersions": "syngo_MR_E11",
  "SpacingBetweenSlices": 2.5,
  "StationName": "AWP66112",
  "TotalReadoutTime": 0.0522511,
  "TxRefAmp": 259.734,
  "dcmmeta_affine": [
    [-2.4942309856414795, -0.13420946896076202, -0.10392171889543533, 130.73768615722656],
    [-0.1263013631105423, 2.4899940490722656, -0.18433110415935516, -99.98025512695312],
    [-0.1134013757109642, 0.17865554988384247, 2.491028308868408, -77.36064910888672],
    [0.0, 0.0, 0.0, 1.0]
],
  "dcmmeta_reorient_transform": [
    [0.0, -1.0, 0.0, 95.0],
    [1.0, 0.0, 0.0, 0.0],
    [0.0, 0.0, 1.0, 0.0],
    [0.0, 0.0, 0.0, 1.0]
],
  "dcmmeta_shape": [96, 96, 48, 236],
  "dcmmeta_slice_dim": 2,
  "dcmmeta_version": 0.6,
  "global": {
    "const": {
      "AccessionNumber": "A001345",
      "AcquisitionMatrix": [96, 0, 0, 96],
      "AngioFlag": "N",
      "BitsAllocated": 16,
      "BitsStored": 12,
      "BodyPartExamined": "BRAIN",
      "Columns": 672,
      "EchoNumbers": 1,
      "EchoTime": 33.0,
      "EchoTrainLength": 96,
      "FlipAngle": 59.0,
      "HighBit": 11,
      "ImageOrientationPatient": [0.99769238499028, 0.0505205455783, -0.0453605490144, -0.0536837888293, 0.99599759120535, -0.0714622216984],
      "ImagePositionPatient": [-797.67397021448, -890.06222964162, 23.724022906555],
      "ImageType": [
        "ORIGINAL",
        "PRIMARY",
        "FMRI",
        "NONE",
        "ND",
        "NORM",
        "MOSAIC"
],
      "ImagedNucleus": "1H",
      "ImagingFrequency": 123.252309,
      "InPlanePhaseEncodingDirection": "COL",
      "MRAcquisitionType": "2D",
      "MagneticFieldStrength": 3.0,
      "Manufacturer": "SIEMENS",
      "ManufacturerModelName": "Prisma",
      "Modality": "MR",
      "NumberOfAverages": 1.0,
      "NumberOfPhaseEncodingSteps": 96,
      "PercentPhaseFieldOfView": 100.0,
      "PercentSampling": 100.0,
      "PerformedProcedureStepStartTime": "101956.908000",
      "PhotometricInterpretation": "MONOCHROME2",
      "PixelBandwidth": 2365.0,
      "PixelRepresentation": 0,
      "PixelSpacing": [2.5, 2.5],
      "PositionReferenceIndicator": "",
      "ProtocolName": "func_run-01_task-localizer",
      "RepetitionTime": 1000.0,
      "Rows": 672,
      "SAR": 0.04917441948683,
      "SamplesPerPixel": 1,
      "ScanOptions": "FS",
      "ScanningSequence": "EP",
      "SequenceName": "*epfid2d1_96",
      "SequenceVariant": "SK",
      "SeriesDescription": "func_run-01_task-localizer",
      "SeriesNumber": 7,
      "SeriesTime": "102931.173000",
      "SliceLocation": -75.145834508731,
      "SliceThickness": 2.5,
      "SmallestImagePixelValue": 0,
      "SoftwareVersions": "syngo MR E11",
      "SpacingBetweenSlices": 2.4999999524808,
      "SpecificCharacterSet": "ISO_IR 100",
      "StudyID": "3",
      "StudyTime": "101956.857000",
      "TransmitCoilName": "Body",
      "VariableFlipAngleFlag": "N",
      "WindowCenterWidthExplanation": "Algo1",
      "dBdt": 0.0},
    "slices": {}
  },
  "time": {
    "samples": {
      "AcquisitionNumber": [1, 2, 3, 4, 5, 6, 7, 8, 9, 10, 11, 12, 13, 14, 15, 16, 17, 18, 19, 20, 21, 22, 23, 24, 25, 26, 27, 28, 29, 30, 31, 32, 33, 34, 35, 36, 37, 38, 39, 40, 41, 42, 43, 44, 45, 46, 47, 48, 49, 50, 51, 52, 53, 54, 55, 56, 57, 58, 59, 60, 61, 62, 63, 64, 65, 66, 67, 68, 69, 70, 71, 72, 73, 74, 75, 76, 77, 78, 79, 80, 81, 82, 83, 84, 85, 86, 87, 88, 89, 90, 91, 92, 93, 94, 95, 96, 97, 98, 99, 100, 101, 102, 103, 104, 105, 106, 107, 108, 109, 110, 111, 112, 113, 114, 115, 116, 117, 118, 119, 120, 121, 122, 123, 124, 125, 126, 127, 128, 129, 130, 131, 132, 133, 134, 135, 136, 137, 138, 139, 140, 141, 142, 143, 144, 145, 146, 147, 148, 149, 150, 151, 152, 153, 154, 155, 156, 157, 158, 159, 160, 161, 162, 163, 164, 165, 166, 167, 168, 169, 170, 171, 172, 173, 174, 175, 176, 177, 178, 179, 180, 181, 182, 183, 184, 185, 186, 187, 188, 189, 190, 191, 192, 193, 194, 195, 196, 197, 198, 199, 200, 201, 202, 203, 204, 205, 206, 207, 208, 209, 210, 211, 212, 213, 214, 215, 216, 217, 218, 219, 220, 221, 222, 223, 224, 225, 226, 227, 228, 229, 230, 231, 232, 233, 234, 235, 236],
      "AcquisitionTime": ["102929.732500", "102930.732500", "102931.732500", "102932.732500", "102933.732500", "102934.732500", "102935.732500", "102936.732500", "102937.732500", "102938.732500", "102939.732500", "102940.732500", "102941.732500", "102942.732500", "102943.732500", "102944.732500", "102945.732500", "102946.732500", "102947.732500", "102948.732500", "102949.732500", "102950.732500", "102951.732500", "102952.732500", "102953.732500", "102954.732500", "102955.732500", "102956.732500", "102957.732500", "102958.732500", "102959.732500", "103000.732500", "103001.732500", "103002.732500", "103003.732500", "103004.732500", "103005.732500", "103006.732500", "103007.732500", "103008.732500", "103009.732500", "103010.732500", "103011.732500", "103012.732500", "103013.732500", "103014.732500", "103015.732500", "103016.732500", "103017.732500", "103018.732500", "103019.732500", "103020.732500", "103021.732500", "103022.732500", "103023.732500", "103024.732500", "103025.732500", "103026.732500", "103027.732500", "103028.732500", "103029.732500", "103030.732500", "103031.732500", "103032.732500", "103033.732500", "103034.732500", "103035.732500", "103036.732500", "103037.732500", "103038.732500", "103039.732500", "103040.732500", "103041.732500", "103042.732500", "103043.732500", "103044.732500", "103045.732500", "103046.732500", "103047.732500", "103048.732500", "103049.732500", "103050.732500", "103051.732500", "103052.732500", "103053.732500", "103054.732500", "103055.732500", "103056.732500", "103057.732500", "103058.732500", "103059.732500", "103100.732500", "103101.732500", "103102.732500", "103103.732500", "103104.732500", "103105.732500", "103106.732500", "103107.732500", "103108.732500", "103109.732500", "103110.732500", "103111.732500", "103112.732500", "103113.732500", "103114.732500", "103115.732500", "103116.732500", "103117.732500", "103118.732500", "103119.732500", "103120.732500", "103121.732500", "103122.732500", "103123.732500", "103124.732500", "103125.732500", "103126.732500", "103127.732500", "103128.732500", "103129.732500", "103130.732500", "103131.732500", "103132.732500", "103133.732500", "103134.732500", "103135.732500", "103136.732500", "103137.732500", "103138.732500", "103139.732500", "103140.732500", "103141.732500", "103142.732500", "103143.732500", "103144.732500", "103145.732500", "103146.732500", "103147.732500", "103148.732500", "103149.732500", "103150.732500", "103151.732500", "103152.732500", "103153.732500", "103154.732500", "103155.732500", "103156.732500", "103157.732500", "103158.732500", "103159.732500", "103200.732500", "103201.732500", "103202.732500", "103203.732500", "103204.732500", "103205.732500", "103206.732500", "103207.732500", "103208.732500", "103209.732500", "103210.732500", "103211.732500", "103212.732500", "103213.732500", "103214.732500", "103215.732500", "103216.732500", "103217.732500", "103218.732500", "103219.732500", "103220.732500", "103221.732500", "103222.732500", "103223.732500", "103224.732500", "103225.732500", "103226.732500", "103227.732500", "103228.732500", "103229.732500", "103230.732500", "103231.732500", "103232.732500", "103233.732500", "103234.732500", "103235.732500", "103236.732500", "103237.732500", "103238.732500", "103239.732500", "103240.732500", "103241.732500", "103242.732500", "103243.732500", "103244.732500", "103245.732500", "103246.732500", "103247.732500", "103248.732500", "103249.732500", "103250.732500", "103251.732500", "103252.732500", "103253.732500", "103254.732500", "103255.732500", "103256.732500", "103257.732500", "103258.732500", "103259.732500", "103300.732500", "103301.732500", "103302.732500", "103303.732500", "103304.732500", "103305.732500", "103306.732500", "103307.732500", "103308.732500", "103309.732500", "103310.732500", "103311.732500", "103312.732500", "103313.732500", "103314.732500", "103315.732500", "103316.732500", "103317.732500", "103318.732500", "103319.732500", "103320.732500", "103321.732500", "103322.732500", "103323.732500", "103324.732500"],
      "ContentTime": ["102931.177000", "102932.042000", "102933.011000", "102934.007000", "102935.003000", "102935.991000", "102937.020000", "102938.033000", "102939.008000", "102940.000000", "102941.030000", "102941.995000", "102943.015000", "102944.037000", "102944.992000", "102945.988000", "102946.986000", "102947.973000", "102948.993000", "102949.963000", "102950.980000", "102952.000000", "102953.006000", "102954.015000", "102955.018000", "102955.997000", "102956.989000", "102957.991000", "102958.971000", "102959.987000", "103001.057000", "103002.061000", "103002.989000", "103004.003000", "103004.986000", "103005.995000", "103007.004000", "103008.003000", "103008.978000", "103009.985000", "103010.996000", "103011.988000", "103013.018000", "103013.973000", "103014.982000", "103016.006000", "103016.964000", "103017.997000", "103018.983000", "103019.986000", "103020.976000", "103021.983000", "103023.000000", "103024.015000", "103024.994000", "103025.992000", "103027.004000", "103028.026000", "103028.984000", "103029.977000", "103031.011000", "103032.001000", "103032.965000", "103034.008000", "103035.001000", "103035.987000", "103036.981000", "103038.006000", "103039.001000", "103039.989000", "103040.997000", "103041.977000", "103043.000000", "103043.995000", "103045.009000", "103045.979000", "103047.024000", "103047.972000", "103049.003000", "103049.984000", "103050.985000", "103051.960000", "103053.008000", "103053.982000", "103055.011000", "103055.981000", "103056.990000", "103057.974000", "103058.981000", "103059.997000", "103100.998000", "103101.971000", "103102.992000", "103103.983000", "103104.994000", "103105.998000", "103106.994000", "103107.988000", "103108.980000", "103110.019000", "103111.008000", "103112.011000", "103112.993000", "103114.000000", "103114.998000", "103116.038000", "103116.994000", "103118.002000", "103119.016000", "103119.995000", "103120.991000", "103122.001000", "103122.992000", "103123.989000", "103124.991000", "103126.011000", "103127.057000", "103127.989000", "103129.008000", "103129.991000", "103131.003000", "103131.985000", "103132.982000", "103133.995000", "103135.010000", "103136.003000", "103136.983000", "103137.988000", "103138.978000", "103140.004000", "103140.973000", "103142.002000", "103142.992000", "103144.002000", "103144.992000", "103145.997000", "103147.020000", "103147.994000", "103149.007000", "103150.001000", "103150.993000", "103151.989000", "103152.992000", "103153.996000", "103155.037000", "103156.048000", "103157.016000", "103158.016000", "103159.007000", "103159.977000", "103201.016000", "103202.000000", "103202.987000", "103203.992000", "103205.006000", "103206.020000", "103207.019000", "103207.996000", "103209.018000", "103210.009000", "103211.006000", "103211.992000", "103212.981000", "103214.029000", "103214.997000", "103215.996000", "103217.038000", "103218.006000", "103218.979000", "103219.990000", "103221.007000", "103222.007000", "103223.001000", "103223.988000", "103225.018000", "103225.996000", "103226.980000", "103228.007000", "103229.013000", "103229.978000", "103231.039000", "103232.050000", "103233.000000", "103234.042000", "103235.042000", "103235.989000", "103236.979000", "103238.057000", "103239.036000", "103240.036000", "103241.061000", "103241.991000", "103243.000000", "103243.998000", "103245.007000", "103246.001000", "103247.001000", "103248.032000", "103249.002000", "103250.006000", "103251.007000", "103252.008000", "103252.979000", "103254.045000", "103255.032000", "103256.014000", "103257.026000", "103258.024000", "103259.026000", "103300.038000", "103301.028000", "103302.006000", "103302.979000", "103303.989000", "103304.988000", "103306.035000", "103307.010000", "103307.981000", "103309.000000", "103309.969000", "103310.996000", "103312.021000", "103313.009000", "103314.002000", "103314.981000", "103315.990000", "103317.018000", "103318.008000", "103318.975000", "103319.975000", "103320.988000", "103322.006000", "103323.005000", "103324.003000", "103324.992000", "103326.008000"],
      "InstanceCreationTime": ["102931.177000", "102932.042000", "102933.011000", "102934.007000", "102935.003000", "102935.991000", "102937.020000", "102938.033000", "102939.008000", "102940.000000", "102941.030000", "102941.995000", "102943.015000", "102944.037000", "102944.992000", "102945.988000", "102946.986000", "102947.973000", "102948.993000", "102949.963000", "102950.980000", "102952.000000", "102953.006000", "102954.015000", "102955.018000", "102955.997000", "102956.989000", "102957.991000", "102958.971000", "102959.987000", "103001.057000", "103002.061000", "103002.989000", "103004.003000", "103004.986000", "103005.995000", "103007.004000", "103008.003000", "103008.978000", "103009.985000", "103010.996000", "103011.988000", "103013.018000", "103013.973000", "103014.982000", "103016.006000", "103016.964000", "103017.997000", "103018.983000", "103019.986000", "103020.976000", "103021.983000", "103023.000000", "103024.015000", "103024.994000", "103025.992000", "103027.004000", "103028.026000", "103028.984000", "103029.977000", "103031.011000", "103032.001000", "103032.965000", "103034.008000", "103035.001000", "103035.987000", "103036.981000", "103038.006000", "103039.001000", "103039.989000", "103040.997000", "103041.977000", "103043.000000", "103043.995000", "103045.009000", "103045.979000", "103047.024000", "103047.972000", "103049.003000", "103049.984000", "103050.985000", "103051.960000", "103053.008000", "103053.982000", "103055.011000", "103055.981000", "103056.990000", "103057.974000", "103058.981000", "103059.997000", "103100.998000", "103101.971000", "103102.992000", "103103.983000", "103104.994000", "103105.998000", "103106.994000", "103107.988000", "103108.980000", "103110.019000", "103111.008000", "103112.011000", "103112.993000", "103114.000000", "103114.998000", "103116.038000", "103116.994000", "103118.002000", "103119.016000", "103119.995000", "103120.991000", "103122.001000", "103122.992000", "103123.989000", "103124.991000", "103126.011000", "103127.057000", "103127.989000", "103129.008000", "103129.991000", "103131.003000", "103131.985000", "103132.982000", "103133.995000", "103135.010000", "103136.003000", "103136.983000", "103137.988000", "103138.978000", "103140.004000", "103140.973000", "103142.002000", "103142.992000", "103144.002000", "103144.992000", "103145.997000", "103147.020000", "103147.994000", "103149.007000", "103150.001000", "103150.993000", "103151.989000", "103152.992000", "103153.996000", "103155.037000", "103156.048000", "103157.016000", "103158.016000", "103159.007000", "103159.977000", "103201.016000", "103202.000000", "103202.987000", "103203.992000", "103205.006000", "103206.020000", "103207.019000", "103207.996000", "103209.018000", "103210.009000", "103211.006000", "103211.992000", "103212.981000", "103214.029000", "103214.997000", "103215.996000", "103217.038000", "103218.006000", "103218.979000", "103219.990000", "103221.007000", "103222.007000", "103223.001000", "103223.988000", "103225.018000", "103225.996000", "103226.980000", "103228.007000", "103229.013000", "103229.978000", "103231.039000", "103232.050000", "103233.000000", "103234.042000", "103235.042000", "103235.989000", "103236.979000", "103238.057000", "103239.036000", "103240.036000", "103241.061000", "103241.991000", "103243.000000", "103243.998000", "103245.007000", "103246.001000", "103247.001000", "103248.032000", "103249.002000", "103250.006000", "103251.007000", "103252.008000", "103252.979000", "103254.045000", "103255.032000", "103256.014000", "103257.026000", "103258.024000", "103259.026000", "103300.038000", "103301.028000", "103302.006000", "103302.979000", "103303.989000", "103304.988000", "103306.035000", "103307.010000", "103307.981000", "103309.000000", "103309.969000", "103310.996000", "103312.021000", "103313.009000", "103314.002000", "103314.981000", "103315.990000", "103317.018000", "103318.008000", "103318.975000", "103319.975000", "103320.988000", "103322.006000", "103323.005000", "103324.003000", "103324.992000", "103326.008000"],
      "InstanceNumber": [1, 2, 3, 4, 5, 6, 7, 8, 9, 10, 11, 12, 13, 14, 15, 16, 17, 18, 19, 20, 21, 22, 23, 24, 25, 26, 27, 28, 29, 30, 31, 32, 33, 34, 35, 36, 37, 38, 39, 40, 41, 42, 43, 44, 45, 46, 47, 48, 49, 50, 51, 52, 53, 54, 55, 56, 57, 58, 59, 60, 61, 62, 63, 64, 65, 66, 67, 68, 69, 70, 71, 72, 73, 74, 75, 76, 77, 78, 79, 80, 81, 82, 83, 84, 85, 86, 87, 88, 89, 90, 91, 92, 93, 94, 95, 96, 97, 98, 99, 100, 101, 102, 103, 104, 105, 106, 107, 108, 109, 110, 111, 112, 113, 114, 115, 116, 117, 118, 119, 120, 121, 122, 123, 124, 125, 126, 127, 128, 129, 130, 131, 132, 133, 134, 135, 136, 137, 138, 139, 140, 141, 142, 143, 144, 145, 146, 147, 148, 149, 150, 151, 152, 153, 154, 155, 156, 157, 158, 159, 160, 161, 162, 163, 164, 165, 166, 167, 168, 169, 170, 171, 172, 173, 174, 175, 176, 177, 178, 179, 180, 181, 182, 183, 184, 185, 186, 187, 188, 189, 190, 191, 192, 193, 194, 195, 196, 197, 198, 199, 200, 201, 202, 203, 204, 205, 206, 207, 208, 209, 210, 211, 212, 213, 214, 215, 216, 217, 218, 219, 220, 221, 222, 223, 224, 225, 226, 227, 228, 229, 230, 231, 232, 233, 234, 235, 236],
      "LargestImagePixelValue": [1039, 1564, 1064, 1092, 928, 1438, 1151, 1114, 1041, 1334, 935, 1095, 1331, 1074, 1105, 1095, 1555, 916, 1000, 1102, 1087, 1156, 1135, 1535, 1621, 1086, 1100, 1021, 1009, 1058, 1051, 1125, 1013, 1003, 1311, 1160, 927, 1154, 974, 1138, 977, 1519, 1276, 1049, 1194, 1120, 1113, 1042, 1333, 1066, 1034, 980, 1066, 1168, 1017, 1373, 1325, 1121, 1010, 1359, 1013, 1205, 1009, 1030, 1195, 1049, 1446, 1523, 917, 1199, 1423, 1007, 1111, 956, 1227, 974, 982, 1289, 947, 1088, 1021, 1420, 1040, 1013, 1377, 1010, 1174, 987, 1225, 1049, 1057, 1198, 980, 1082, 1230, 1428, 893, 984, 1144, 1091, 985, 1167, 1147, 1172, 864, 1007, 900, 1088, 1137, 936, 1451, 1184, 1028, 1204, 1092, 1075, 994, 1149, 1135, 974, 1148, 1545, 1123, 939, 1180, 1235, 1189, 921, 1165, 982, 1138, 991, 1402, 1017, 995, 989, 1044, 1112, 1076, 989, 1478, 1014, 959, 1002, 1061, 1066, 983, 883, 1332, 1020, 1011, 1296, 944, 1108, 920, 1084, 1083, 1077, 1207, 1528, 1011, 1051, 1010, 1243, 1030, 1239, 1485, 1264, 1123, 1041, 1253, 1032, 1044, 933, 1136, 1159, 1004, 1166, 1087, 1114, 1027, 1092, 1113, 1035, 1035, 1102, 1237, 983, 1457, 1147, 1110, 1095, 1161, 1169, 1013, 1353, 972, 1060, 1081, 1239, 929, 1092, 1053, 1220, 1020, 1286, 1022, 1137, 977, 1354, 920, 1118, 1221, 1177, 988, 1190, 919, 1008, 865, 1022, 1208, 983, 1476, 1637, 1380, 908, 1044, 1140, 1198, 996, 951, 1086, 1188, 909, 1015, 988],
      "WindowCenter": [394.0, 396.0, 393.0, 393.0, 393.0, 396.0, 393.0, 393.0, 393.0, 394.0, 393.0, 393.0, 394.0, 394.0, 393.0, 393.0, 395.0, 392.0, 393.0, 393.0, 394.0, 394.0, 395.0, 395.0, 396.0, 392.0, 393.0, 393.0, 393.0, 393.0, 394.0, 394.0, 393.0, 392.0, 394.0, 393.0, 392.0, 393.0, 393.0, 394.0, 393.0, 396.0, 394.0, 393.0, 394.0, 394.0, 393.0, 393.0, 395.0, 393.0, 393.0, 393.0, 395.0, 394.0, 394.0, 396.0, 395.0, 394.0, 393.0, 394.0, 393.0, 394.0, 393.0, 393.0, 394.0, 394.0, 396.0, 397.0, 393.0, 394.0, 395.0, 393.0, 394.0, 393.0, 394.0, 393.0, 393.0, 394.0, 393.0, 393.0, 393.0, 395.0, 393.0, 393.0, 394.0, 393.0, 392.0, 392.0, 394.0, 392.0, 393.0, 393.0, 392.0, 394.0, 393.0, 395.0, 392.0, 393.0, 393.0, 394.0, 393.0, 394.0, 393.0, 394.0, 392.0, 391.0, 392.0, 394.0, 394.0, 393.0, 396.0, 395.0, 394.0, 394.0, 394.0, 393.0, 394.0, 395.0, 395.0, 394.0, 394.0, 396.0, 393.0, 392.0, 393.0, 393.0, 394.0, 392.0, 393.0, 393.0, 394.0, 393.0, 395.0, 393.0, 392.0, 392.0, 393.0, 393.0, 394.0, 393.0, 395.0, 393.0, 392.0, 393.0, 393.0, 393.0, 393.0, 393.0, 395.0, 394.0, 393.0, 394.0, 393.0, 394.0, 392.0, 394.0, 395.0, 394.0, 394.0, 396.0, 394.0, 393.0, 393.0, 395.0, 394.0, 395.0, 395.0, 394.0, 393.0, 393.0, 394.0, 393.0, 393.0, 393.0, 393.0, 394.0, 392.0, 393.0, 393.0, 394.0, 393.0, 393.0, 394.0, 394.0, 394.0, 394.0, 395.0, 393.0, 395.0, 393.0, 394.0, 393.0, 395.0, 395.0, 393.0, 395.0, 393.0, 393.0, 393.0, 395.0, 392.0, 393.0, 394.0, 395.0, 394.0, 395.0, 395.0, 395.0, 392.0, 396.0, 392.0, 393.0, 394.0, 394.0, 392.0, 395.0, 392.0, 393.0, 393.0, 394.0, 395.0, 394.0, 396.0, 396.0, 395.0, 392.0, 393.0, 393.0, 394.0, 392.0, 393.0, 393.0, 393.0, 392.0, 393.0, 394.0],
      "WindowWidth": [835.0, 837.0, 832.0, 833.0, 832.0, 836.0, 832.0, 832.0, 832.0, 833.0, 832.0, 832.0, 834.0, 833.0, 833.0, 831.0, 835.0, 831.0, 832.0, 832.0, 833.0, 834.0, 835.0, 835.0, 836.0, 830.0, 831.0, 832.0, 832.0, 833.0, 833.0, 833.0, 832.0, 831.0, 834.0, 832.0, 832.0, 833.0, 832.0, 834.0, 833.0, 837.0, 833.0, 832.0, 833.0, 833.0, 832.0, 832.0, 836.0, 833.0, 832.0, 832.0, 835.0, 834.0, 834.0, 837.0, 836.0, 834.0, 832.0, 834.0, 833.0, 834.0, 833.0, 833.0, 834.0, 833.0, 836.0, 838.0, 833.0, 834.0, 835.0, 832.0, 834.0, 833.0, 833.0, 833.0, 832.0, 833.0, 832.0, 832.0, 832.0, 836.0, 833.0, 832.0, 833.0, 832.0, 831.0, 831.0, 834.0, 831.0, 833.0, 832.0, 831.0, 833.0, 832.0, 835.0, 832.0, 832.0, 832.0, 834.0, 832.0, 834.0, 833.0, 834.0, 830.0, 830.0, 830.0, 834.0, 834.0, 833.0, 837.0, 835.0, 833.0, 834.0, 834.0, 832.0, 833.0, 835.0, 836.0, 834.0, 834.0, 836.0, 833.0, 832.0, 833.0, 832.0, 833.0, 831.0, 833.0, 833.0, 834.0, 832.0, 835.0, 832.0, 831.0, 831.0, 833.0, 833.0, 834.0, 832.0, 836.0, 832.0, 831.0, 833.0, 833.0, 833.0, 832.0, 832.0, 836.0, 834.0, 833.0, 834.0, 833.0, 834.0, 832.0, 835.0, 836.0, 834.0, 835.0, 838.0, 834.0, 833.0, 832.0, 836.0, 834.0, 835.0, 835.0, 834.0, 833.0, 832.0, 833.0, 833.0, 832.0, 832.0, 833.0, 833.0, 831.0, 833.0, 832.0, 834.0, 832.0, 833.0, 835.0, 834.0, 834.0, 834.0, 835.0, 833.0, 836.0, 833.0, 833.0, 833.0, 835.0, 835.0, 833.0, 836.0, 833.0, 833.0, 833.0, 835.0, 832.0, 833.0, 834.0, 836.0, 834.0, 835.0, 835.0, 836.0, 832.0, 837.0, 832.0, 833.0, 834.0, 833.0, 831.0, 835.0, 832.0, 832.0, 832.0, 834.0, 836.0, 834.0, 837.0, 837.0, 835.0, 831.0, 832.0, 832.0, 833.0, 831.0, 833.0, 832.0, 833.0, 831.0, 832.0, 834.0]
    },
    "slices": {}
  }
}