{
  "AcquisitionMatrixPE": 120,
  "AcquisitionNumber": 1,
  "AcquisitionTime": "19:31:38.557500",
  "BandwidthPerPixelPhaseEncode": 13.889,
  "BaseResolution": 120,
  "BodyPartExamined": "BRAIN",
  "ConsistencyInfo": "N4_VE11C_LATEST_20160120",
  "ConversionSoftware": "dcm2niix",
  "ConversionSoftwareVersion": "v1.0.20171215 (OpenJPEG build) GCC6.3.0",
  "DerivedVendorReportedEchoSpacing": 0.000599995,
  "DeviceSerialNumber": "66112",
  "DwellTime": 2e-06,
  "EchoTime": 0.103,
  "EchoTrainLength": 120,
  "EffectiveEchoSpacing": 0.000599995,
  "FlipAngle": 90,
  "ImageOrientationPatientDICOM": [
    0.9997,
    0.0199639,
    -0.0141837,
    -0.0193698,
    0.998977,
    0.0408542
  ],
  "ImageType": [
    "ORIGINAL",
    "PRIMARY",
    "DIFFUSION",
    "NONE",
    "ND",
    "NORM",
    "MOSAIC"
  ],
  "InPlanePhaseEncodingDirectionDICOM": "COL",
  "InstitutionAddress": "Maynard_3_Hanover_NH_US_03755",
  "InstitutionName": "Dartmouth_College_-_PBS",
  "InstitutionalDepartmentName": "Department",
  "MRAcquisitionType": "2D",
  "MagneticFieldStrength": 3,
  "Manufacturer": "Siemens",
  "ManufacturersModelName": "Prisma",
  "Modality": "MR",
  "MultibandAccelerationFactor": 4,
  "PatientPosition": "HFS",
  "PercentPhaseFOV": 100,
  "PhaseEncodingDirection": "j-",
  "PhaseEncodingSteps": 120,
  "PhaseResolution": 1,
  "PixelBandwidth": 2085,
  "ProcedureStepDescription": "Gobbini_Matteo_1038_hyperface",
  "ProtocolName": "dwi_acq-2.0mmXhardi96Xsms4X11b0",
  "PulseSequenceDetails": "%SiemensSeq%_ep2d_diff",
  "ReceiveCoilActiveElements": "HEA;HEP",
  "ReceiveCoilName": "Head_32",
  "ReconMatrixPE": 120,
  "RepetitionTime": 2.6,
  "SAR": 0.327542,
  "ScanOptions": "FS",
  "ScanningSequence": "EP",
  "SequenceName": "_ep_b0",
  "SequenceVariant": "SK_SP",
  "SeriesDescription": "dwi_acq-2.0mmXhardi96Xsms4X11b0",
  "SeriesNumber": 65,
  "ShimSetting": [
    4140,
    -7735,
    -7316,
    746,
    -59,
    -39,
    106,
    98
  ],
  "SliceThickness": 2,
  "SliceTiming": [
    1.935,
    0,
    1.29,
    0.1625,
    1.4525,
    0.3225,
    1.6125,
    0.485,
    1.775,
    0.8075,
    2.0975,
    0.9675,
    2.2575,
    1.13,
    2.42,
    0.645,
    1.935,
    0,
    1.29,
    0.1625,
    1.4525,
    0.3225,
    1.6125,
    0.485,
    1.775,
    0.8075,
    2.0975,
    0.9675,
    2.2575,
    1.13,
    2.42,
    0.645,
    1.935,
    0,
    1.29,
    0.1625,
    1.4525,
    0.3225,
    1.6125,
    0.485,
    1.775,
    0.8075,
    2.0975,
    0.9675,
    2.2575,
    1.13,
    2.42,
    0.645,
    1.935,
    0,
    1.29,
    0.1625,
    1.4525,
    0.3225,
    1.6125,
    0.485,
    1.775,
    0.8075,
    2.0975,
    0.9675,
    2.2575,
    1.13,
    2.42,
    0.645
  ],
  "SoftwareVersions": "syngo_MR_E11",
  "SpacingBetweenSlices": 2,
  "StationName": "AWP66112",
  "TotalReadoutTime": 0.0713994,
  "TxRefAmp": 248.358,
  "dcmmeta_affine": [
    [
      -1.9994001388549805,
      -0.03873957693576813,
      -0.029969658702611923,
      122.93528747558594
    ],
    [
      -0.03992772102355957,
      1.9979547262191772,
      0.08113444596529007,
      -101.64278411865234
    ],
    [
      -0.028367452323436737,
      -0.08170842379331589,
      1.998128890991211,
      -63.928802490234375
    ],
    [
      0.0,
      0.0,
      0.0,
      1.0
    ]
  ],
  "dcmmeta_reorient_transform": [
    [
      0.0,
      -1.0,
      0.0,
      119.0
    ],
    [
      1.0,
      0.0,
      0.0,
      0.0
    ],
    [
      0.0,
      0.0,
      1.0,
      0.0
    ],
    [
      0.0,
      0.0,
      0.0,
      1.0
    ]
  ],
  "dcmmeta_shape": [
    120,
    120,
    64,
    107
  ],
  "dcmmeta_slice_dim": 2,
  "dcmmeta_version": 0.6,
  "global": {
    "const": {
      "AccessionNumber": "A001355",
      "AcquisitionMatrix": [
        120,
        0,
        0,
        120
      ],
      "AngioFlag": "N",
      "BitsAllocated": 16,
      "BitsStored": 12,
      "BodyPartExamined": "BRAIN",
      "Columns": 960,
      "EchoNumbers": 1,
      "EchoTime": 103.0,
      "EchoTrainLength": 120,
      "FlipAngle": 90.0,
      "HighBit": 11,
      "ImageOrientationPatient": [
        0.99970008811736,
        0.01996386038869,
        -0.0141837264682,
        -0.019369788615,
        0.99897734946758,
        0.0408542107958
      ],
      "ImagePositionPatient": [
        -941.80272666525,
        -992.02444090233,
        -96.055309852002
      ],
      "ImageType": [
        "ORIGINAL",
        "PRIMARY",
        "DIFFUSION",
        "NONE",
        "ND",
        "NORM",
        "MOSAIC"
      ],
      "ImagedNucleus": "1H",
      "ImagingFrequency": 123.252294,
      "InPlanePhaseEncodingDirection": "COL",
      "MRAcquisitionType": "2D",
      "MagneticFieldStrength": 3.0,
      "Manufacturer": "SIEMENS",
      "ManufacturerModelName": "Prisma",
      "Modality": "MR",
      "NumberOfAverages": 1.0,
      "NumberOfPhaseEncodingSteps": 120,
      "PercentPhaseFieldOfView": 100.0,
      "PercentSampling": 100.0,
      "PerformedProcedureStepStartTime": "183646.702000",
      "PhotometricInterpretation": "MONOCHROME2",
      "PixelBandwidth": 2085.0,
      "PixelRepresentation": 0,
      "PixelSpacing": [
        2.0,
        2.0
      ],
      "PositionReferenceIndicator": "",
      "ProtocolName": "dwi_acq-2.0mmXhardi96Xsms4X11b0",
      "RepetitionTime": 2600.0,
      "Rows": 960,
      "SAR": 0.32754248748002,
      "SamplesPerPixel": 1,
      "ScanOptions": "FS",
      "ScanningSequence": "EP",
      "SequenceVariant": [
        "SK",
        "SP"
      ],
      "SeriesDescription": "dwi_acq-2.0mmXhardi96Xsms4X11b0",
      "SeriesNumber": 65,
      "SeriesTime": "193241.534000",
      "SliceLocation": -69.834521311489,
      "SliceThickness": 2.0,
      "SmallestImagePixelValue": 0,
      "SoftwareVersions": "syngo MR E11",
      "SpacingBetweenSlices": 1.9999999801287,
      "SpecificCharacterSet": "ISO_IR 100",
      "StudyID": "3",
      "StudyTime": "183646.645000",
      "TransmitCoilName": "Body",
      "VariableFlipAngleFlag": "N",
      "WindowCenterWidthExplanation": "Algo1",
      "dBdt": 0.0
    },
    "slices": {}
  },
  "time": {
    "samples": {
      "AcquisitionNumber": [
        1,
        2,
        3,
        4,
        5,
        6,
        7,
        8,
        9,
        10,
        11,
        12,
        13,
        14,
        15,
        16,
        17,
        18,
        19,
        20,
        21,
        22,
        23,
        24,
        25,
        26,
        27,
        28,
        29,
        30,
        31,
        32,
        33,
        34,
        35,
        36,
        37,
        38,
        39,
        40,
        41,
        42,
        43,
        44,
        45,
        46,
        47,
        48,
        49,
        50,
        51,
        52,
        53,
        54,
        55,
        56,
        57,
        58,
        59,
        60,
        61,
        62,
        63,
        64,
        65,
        66,
        67,
        68,
        69,
        70,
        71,
        72,
        73,
        74,
        75,
        76,
        77,
        78,
        79,
        80,
        81,
        82,
        83,
        84,
        85,
        86,
        87,
        88,
        89,
        90,
        91,
        92,
        93,
        94,
        95,
        96,
        97,
        98,
        99,
        100,
        101,
        102,
        103,
        104,
        105,
        106,
        107
      ],
      "AcquisitionTime": [
        "193138.557500",
        "193141.157500",
        "193143.757500",
        "193146.357500",
        "193148.957500",
        "193151.557500",
        "193154.157500",
        "193156.757500",
        "193159.357500",
        "193201.957500",
        "193204.557500",
        "193207.157500",
        "193209.757500",
        "193212.357500",
        "193214.957500",
        "193217.557500",
        "193220.157500",
        "193222.757500",
        "193225.357500",
        "193227.957500",
        "193230.557500",
        "193233.157500",
        "193235.757500",
        "193238.357500",
        "193240.957500",
        "193243.557500",
        "193246.157500",
        "193248.757500",
        "193251.357500",
        "193253.957500",
        "193256.557500",
        "193259.157500",
        "193301.757500",
        "193304.357500",
        "193306.957500",
        "193309.557500",
        "193312.157500",
        "193314.757500",
        "193317.357500",
        "193319.957500",
        "193322.557500",
        "193325.157500",
        "193327.757500",
        "193330.357500",
        "193332.957500",
        "193335.557500",
        "193338.157500",
        "193340.757500",
        "193343.357500",
        "193345.957500",
        "193348.557500",
        "193351.157500",
        "193353.757500",
        "193356.357500",
        "193358.957500",
        "193401.557500",
        "193404.157500",
        "193406.757500",
        "193409.357500",
        "193411.957500",
        "193414.557500",
        "193417.157500",
        "193419.757500",
        "193422.357500",
        "193424.957500",
        "193427.557500",
        "193430.157500",
        "193432.757500",
        "193435.357500",
        "193437.957500",
        "193440.557500",
        "193443.157500",
        "193445.757500",
        "193448.357500",
        "193450.957500",
        "193453.557500",
        "193456.157500",
        "193458.757500",
        "193501.357500",
        "193503.957500",
        "193506.557500",
        "193509.157500",
        "193511.757500",
        "193514.357500",
        "193516.957500",
        "193519.557500",
        "193522.157500",
        "193524.757500",
        "193527.357500",
        "193529.957500",
        "193532.557500",
        "193535.157500",
        "193537.757500",
        "193540.357500",
        "193542.957500",
        "193545.557500",
        "193548.157500",
        "193550.757500",
        "193553.357500",
        "193555.957500",
        "193558.557500",
        "193601.157500",
        "193603.757500",
        "193606.357500",
        "193608.957500",
        "193611.557500",
        "193614.157500"
      ],
      "ContentTime": [
        "193241.538000",
        "193241.542000",
        "193241.556000",
        "193241.559000",
        "193241.562000",
        "193241.565000",
        "193241.568000",
        "193241.572000",
        "193241.575000",
        "193241.578000",
        "193241.581000",
        "193241.584000",
        "193241.588000",
        "193241.591000",
        "193241.595000",
        "193241.603000",
        "193241.607000",
        "193241.610000",
        "193241.613000",
        "193241.616000",
        "193241.619000",
        "193241.622000",
        "193241.626000",
        "193241.629000",
        "193341.532000",
        "193341.536000",
        "193341.539000",
        "193341.542000",
        "193341.545000",
        "193341.549000",
        "193341.552000",
        "193341.555000",
        "193341.558000",
        "193341.561000",
        "193341.564000",
        "193341.567000",
        "193341.571000",
        "193341.574000",
        "193341.577000",
        "193341.580000",
        "193341.583000",
        "193341.587000",
        "193341.590000",
        "193341.593000",
        "193341.596000",
        "193341.599000",
        "193341.602000",
        "193421.532000",
        "193421.536000",
        "193421.539000",
        "193421.542000",
        "193421.545000",
        "193421.548000",
        "193421.552000",
        "193421.555000",
        "193421.558000",
        "193421.561000",
        "193421.564000",
        "193421.568000",
        "193421.571000",
        "193421.574000",
        "193421.577000",
        "193421.580000",
        "193521.532000",
        "193521.536000",
        "193521.539000",
        "193521.542000",
        "193521.545000",
        "193521.548000",
        "193521.552000",
        "193521.555000",
        "193521.558000",
        "193521.561000",
        "193521.565000",
        "193521.568000",
        "193521.571000",
        "193521.574000",
        "193521.577000",
        "193521.580000",
        "193521.584000",
        "193521.587000",
        "193521.590000",
        "193521.593000",
        "193521.597000",
        "193521.600000",
        "193521.603000",
        "193615.605000",
        "193615.609000",
        "193615.612000",
        "193615.633000",
        "193615.636000",
        "193615.639000",
        "193615.642000",
        "193615.645000",
        "193615.649000",
        "193615.652000",
        "193615.655000",
        "193615.658000",
        "193615.661000",
        "193615.664000",
        "193615.668000",
        "193615.671000",
        "193615.674000",
        "193615.677000",
        "193615.680000",
        "193615.684000",
        "193615.687000"
      ],
      "InstanceCreationTime": [
        "193241.538000",
        "193241.542000",
        "193241.556000",
        "193241.559000",
        "193241.562000",
        "193241.565000",
        "193241.568000",
        "193241.572000",
        "193241.575000",
        "193241.578000",
        "193241.581000",
        "193241.584000",
        "193241.588000",
        "193241.591000",
        "193241.595000",
        "193241.603000",
        "193241.607000",
        "193241.610000",
        "193241.613000",
        "193241.616000",
        "193241.619000",
        "193241.622000",
        "193241.626000",
        "193241.629000",
        "193341.532000",
        "193341.536000",
        "193341.539000",
        "193341.542000",
        "193341.545000",
        "193341.549000",
        "193341.552000",
        "193341.555000",
        "193341.558000",
        "193341.561000",
        "193341.564000",
        "193341.567000",
        "193341.571000",
        "193341.574000",
        "193341.577000",
        "193341.580000",
        "193341.583000",
        "193341.587000",
        "193341.590000",
        "193341.593000",
        "193341.596000",
        "193341.599000",
        "193341.602000",
        "193421.532000",
        "193421.536000",
        "193421.539000",
        "193421.542000",
        "193421.545000",
        "193421.548000",
        "193421.552000",
        "193421.555000",
        "193421.558000",
        "193421.561000",
        "193421.564000",
        "193421.568000",
        "193421.571000",
        "193421.574000",
        "193421.577000",
        "193421.580000",
        "193521.532000",
        "193521.536000",
        "193521.539000",
        "193521.542000",
        "193521.545000",
        "193521.548000",
        "193521.552000",
        "193521.555000",
        "193521.558000",
        "193521.561000",
        "193521.565000",
        "193521.568000",
        "193521.571000",
        "193521.574000",
        "193521.577000",
        "193521.580000",
        "193521.584000",
        "193521.587000",
        "193521.590000",
        "193521.593000",
        "193521.597000",
        "193521.600000",
        "193521.603000",
        "193615.605000",
        "193615.609000",
        "193615.612000",
        "193615.633000",
        "193615.636000",
        "193615.639000",
        "193615.642000",
        "193615.645000",
        "193615.649000",
        "193615.652000",
        "193615.655000",
        "193615.658000",
        "193615.661000",
        "193615.664000",
        "193615.668000",
        "193615.671000",
        "193615.674000",
        "193615.677000",
        "193615.680000",
        "193615.684000",
        "193615.687000"
      ],
      "InstanceNumber": [
        1,
        2,
        3,
        4,
        5,
        6,
        7,
        8,
        9,
        10,
        11,
        12,
        13,
        14,
        15,
        16,
        17,
        18,
        19,
        20,
        21,
        22,
        23,
        24,
        25,
        26,
        27,
        28,
        29,
        30,
        31,
        32,
        33,
        34,
        35,
        36,
        37,
        38,
        39,
        40,
        41,
        42,
        43,
        44,
        45,
        46,
        47,
        48,
        49,
        50,
        51,
        52,
        53,
        54,
        55,
        56,
        57,
        58,
        59,
        60,
        61,
        62,
        63,
        64,
        65,
        66,
        67,
        68,
        69,
        70,
        71,
        72,
        73,
        74,
        75,
        76,
        77,
        78,
        79,
        80,
        81,
        82,
        83,
        84,
        85,
        86,
        87,
        88,
        89,
        90,
        91,
        92,
        93,
        94,
        95,
        96,
        97,
        98,
        99,
        100,
        101,
        102,
        103,
        104,
        105,
        106,
        107
      ],
      "LargestImagePixelValue": [
        2833,
        2272,
        526,
        551,
        604,
        468,
        583,
        562,
        503,
        540,
        550,
        2245,
        582,
        570,
        582,
        526,
        545,
        521,
        519,
        588,
        509,
        539,
        2531,
        462,
        611,
        518,
        582,
        510,
        573,
        567,
        538,
        499,
        527,
        2276,
        549,
        573,
        467,
        483,
        592,
        627,
        562,
        434,
        445,
        547,
        2294,
        552,
        597,
        548,
        587,
        556,
        527,
        600,
        596,
        465,
        532,
        2207,
        606,
        515,
        507,
        519,
        548,
        591,
        520,
        513,
        550,
        457,
        2347,
        542,
        571,
        594,
        506,
        513,
        579,
        568,
        567,
        531,
        445,
        2661,
        515,
        437,
        509,
        547,
        558,
        469,
        541,
        508,
        568,
        2433,
        449,
        508,
        512,
        564,
        563,
        419,
        583,
        506,
        558,
        2301,
        468,
        513,
        517,
        592,
        568,
        603,
        597,
        523,
        548
      ],
      "SequenceName": [
        "*ep_b0",
        "*ep_b0",
        "*ep_b1000#2",
        "*ep_b1000#3",
        "*ep_b1000#4",
        "*ep_b1000#5",
        "*ep_b1000#6",
        "*ep_b1000#7",
        "*ep_b1000#8",
        "*ep_b1000#9",
        "*ep_b1000#10",
        "*ep_b0",
        "*ep_b1000#12",
        "*ep_b1000#13",
        "*ep_b1000#14",
        "*ep_b1000#15",
        "*ep_b1000#16",
        "*ep_b1000#17",
        "*ep_b1000#18",
        "*ep_b1000#19",
        "*ep_b1000#20",
        "*ep_b1000#21",
        "*ep_b0",
        "*ep_b1000#23",
        "*ep_b1000#24",
        "*ep_b1000#25",
        "*ep_b1000#26",
        "*ep_b1000#27",
        "*ep_b1000#28",
        "*ep_b1000#29",
        "*ep_b1000#30",
        "*ep_b1000#31",
        "*ep_b1000#32",
        "*ep_b0",
        "*ep_b1000#34",
        "*ep_b1000#35",
        "*ep_b1000#36",
        "*ep_b1000#37",
        "*ep_b1000#38",
        "*ep_b1000#39",
        "*ep_b1000#40",
        "*ep_b1000#41",
        "*ep_b1000#42",
        "*ep_b1000#43",
        "*ep_b0",
        "*ep_b1000#45",
        "*ep_b1000#46",
        "*ep_b1000#47",
        "*ep_b1000#48",
        "*ep_b1000#49",
        "*ep_b1000#50",
        "*ep_b1000#51",
        "*ep_b1000#52",
        "*ep_b1000#53",
        "*ep_b1000#54",
        "*ep_b0",
        "*ep_b1000#56",
        "*ep_b1000#57",
        "*ep_b1000#58",
        "*ep_b1000#59",
        "*ep_b1000#60",
        "*ep_b1000#61",
        "*ep_b1000#62",
        "*ep_b1000#63",
        "*ep_b1000#64",
        "*ep_b1000#65",
        "*ep_b0",
        "*ep_b1000#67",
        "*ep_b1000#68",
        "*ep_b1000#69",
        "*ep_b1000#70",
        "*ep_b1000#71",
        "*ep_b1000#72",
        "*ep_b1000#73",
        "*ep_b1000#74",
        "*ep_b1000#75",
        "*ep_b1000#76",
        "*ep_b0",
        "*ep_b1000#78",
        "*ep_b1000#79",
        "*ep_b1000#80",
        "*ep_b1000#81",
        "*ep_b1000#82",
        "*ep_b1000#83",
        "*ep_b1000#84",
        "*ep_b1000#85",
        "*ep_b1000#86",
        "*ep_b0",
        "*ep_b1000#88",
        "*ep_b1000#89",
        "*ep_b1000#90",
        "*ep_b1000#91",
        "*ep_b1000#92",
        "*ep_b1000#93",
        "*ep_b1000#94",
        "*ep_b1000#95",
        "*ep_b1000#96",
        "*ep_b0",
        "*ep_b1000#98",
        "*ep_b1000#99",
        "*ep_b1000#100",
        "*ep_b1000#101",
        "*ep_b1000#102",
        "*ep_b1000#103",
        "*ep_b1000#104",
        "*ep_b1000#105",
        "*ep_b1000#106"
      ],
      "WindowCenter": [
        259.0,
        238.0,
        102.0,
        107.0,
        103.0,
        105.0,
        104.0,
        103.0,
        106.0,
        100.0,
        106.0,
        236.0,
        106.0,
        103.0,
        102.0,
        104.0,
        105.0,
        101.0,
        104.0,
        106.0,
        103.0,
        105.0,
        243.0,
        103.0,
        107.0,
        103.0,
        103.0,
        105.0,
        102.0,
        105.0,
        103.0,
        103.0,
        107.0,
        234.0,
        104.0,
        104.0,
        100.0,
        106.0,
        103.0,
        106.0,
        104.0,
        103.0,
        102.0,
        106.0,
        234.0,
        102.0,
        104.0,
        106.0,
        104.0,
        105.0,
        103.0,
        103.0,
        104.0,
        103.0,
        104.0,
        235.0,
        106.0,
        101.0,
        104.0,
        102.0,
        106.0,
        104.0,
        103.0,
        103.0,
        104.0,
        103.0,
        238.0,
        103.0,
        106.0,
        104.0,
        102.0,
        103.0,
        103.0,
        105.0,
        103.0,
        104.0,
        102.0,
        248.0,
        105.0,
        103.0,
        105.0,
        103.0,
        105.0,
        103.0,
        105.0,
        105.0,
        103.0,
        239.0,
        103.0,
        104.0,
        105.0,
        104.0,
        104.0,
        101.0,
        107.0,
        104.0,
        104.0,
        233.0,
        104.0,
        103.0,
        102.0,
        104.0,
        105.0,
        105.0,
        104.0,
        105.0,
        102.0
      ],
      "WindowWidth": [
        593.0,
        560.0,
        259.0,
        269.0,
        262.0,
        266.0,
        264.0,
        262.0,
        267.0,
        256.0,
        268.0,
        557.0,
        268.0,
        262.0,
        259.0,
        264.0,
        266.0,
        257.0,
        264.0,
        268.0,
        262.0,
        266.0,
        566.0,
        262.0,
        269.0,
        262.0,
        263.0,
        266.0,
        261.0,
        266.0,
        261.0,
        262.0,
        269.0,
        551.0,
        264.0,
        264.0,
        256.0,
        268.0,
        261.0,
        267.0,
        265.0,
        262.0,
        260.0,
        267.0,
        552.0,
        261.0,
        263.0,
        268.0,
        264.0,
        265.0,
        262.0,
        262.0,
        263.0,
        263.0,
        264.0,
        556.0,
        267.0,
        258.0,
        264.0,
        259.0,
        268.0,
        264.0,
        262.0,
        261.0,
        263.0,
        262.0,
        560.0,
        262.0,
        268.0,
        264.0,
        260.0,
        262.0,
        261.0,
        266.0,
        262.0,
        265.0,
        260.0,
        573.0,
        266.0,
        262.0,
        266.0,
        262.0,
        266.0,
        261.0,
        265.0,
        265.0,
        261.0,
        559.0,
        261.0,
        264.0,
        266.0,
        264.0,
        264.0,
        258.0,
        269.0,
        264.0,
        264.0,
        549.0,
        264.0,
        262.0,
        260.0,
        263.0,
        265.0,
        266.0,
        264.0,
        265.0,
        259.0
      ]
    },
    "slices": {}
  },
  "CoilCombinationMethod": "Adaptive Combine",
  "NonlinearGradientCorrection": false,
  "PulseSequenceType": "Spin Echo EPI",
  "B0FieldSource": "pepolar_ses-2"
}
