{
  "AcquisitionMatrixPE": 120,
  "AcquisitionNumber": 1,
  "BandwidthPerPixelPhaseEncode": 13.889,
  "BaseResolution": 120,
  "BodyPartExamined": "BRAIN",
  "ConsistencyInfo": "N4_VE11C_LATEST_20160120",
  "ConversionSoftware": "dcm2niix",
  "ConversionSoftwareVersion": "v1.0.20171215 (OpenJPEG build) GCC6.3.0",
  "DerivedVendorReportedEchoSpacing": 0.000599995,
  "DeviceSerialNumber": "66112",
  "DwellTime": 2e-06,
  "EchoTime": 0.103,
  "EchoTrainLength": 120,
  "EffectiveEchoSpacing": 0.000599995,
  "FlipAngle": 90,
  "ImageOrientationPatientDICOM": [
    0.996673,
    -0.00532555,
    0.0813251,
    0.0071322,
    0.999734,
    -0.0219408
  ],
  "ImageType": [
    "ORIGINAL",
    "PRIMARY",
    "DIFFUSION",
    "NONE",
    "ND",
    "NORM",
    "MOSAIC"
  ],
  "InPlanePhaseEncodingDirectionDICOM": "COL",
  "InstitutionAddress": "Maynard_3_Hanover_NH_US_03755",
  "InstitutionName": "Dartmouth_College_-_PBS",
  "InstitutionalDepartmentName": "Department",
  "MRAcquisitionType": "2D",
  "MagneticFieldStrength": 3,
  "Manufacturer": "Siemens",
  "ManufacturersModelName": "Prisma",
  "Modality": "MR",
  "MultibandAccelerationFactor": 4,
  "PatientPosition": "HFS",
  "PercentPhaseFOV": 100,
  "PhaseEncodingDirection": "j-",
  "PhaseEncodingSteps": 120,
  "PhaseResolution": 1,
  "PixelBandwidth": 2085,
  "ProcedureStepDescription": "Gobbini_Matteo_1038_hyperface",
  "ProtocolName": "dwi_acq-2.0mmXhardi96Xsms4X11b0",
  "PulseSequenceDetails": "%SiemensSeq%_ep2d_diff",
  "ReceiveCoilActiveElements": "HEA;HEP",
  "ReceiveCoilName": "Head_32",
  "ReconMatrixPE": 120,
  "RepetitionTime": 2.6,
  "SAR": 0.291886,
  "ScanOptions": "FS",
  "ScanningSequence": "EP",
  "SequenceName": "_ep_b0",
  "SequenceVariant": "SK_SP",
  "SeriesDescription": "dwi_acq-2.0mmXhardi96Xsms4X11b0",
  "SeriesNumber": 65,
  "ShimSetting": [
    4160,
    -7690,
    -7339,
    722,
    -44,
    -99,
    -20,
    40
  ],
  "SliceThickness": 2,
  "SliceTiming": [
    1.935,
    0,
    1.29,
    0.1625,
    1.4525,
    0.3225,
    1.6125,
    0.485,
    1.775,
    0.8075,
    2.0975,
    0.9675,
    2.2575,
    1.13,
    2.42,
    0.645,
    1.935,
    0,
    1.29,
    0.1625,
    1.4525,
    0.3225,
    1.6125,
    0.485,
    1.775,
    0.8075,
    2.0975,
    0.9675,
    2.2575,
    1.13,
    2.42,
    0.645,
    1.935,
    0,
    1.29,
    0.1625,
    1.4525,
    0.3225,
    1.6125,
    0.485,
    1.775,
    0.8075,
    2.0975,
    0.9675,
    2.2575,
    1.13,
    2.42,
    0.645,
    1.935,
    0,
    1.29,
    0.1625,
    1.4525,
    0.3225,
    1.6125,
    0.485,
    1.775,
    0.8075,
    2.0975,
    0.9675,
    2.2575,
    1.13,
    2.42,
    0.645
  ],
  "SoftwareVersions": "syngo_MR_E11",
  "SpacingBetweenSlices": 2,
  "StationName": "AWP66112",
  "TotalReadoutTime": 0.0713994,
  "TxRefAmp": 229.511,
  "time": {
    "samples": {
      "AcquisitionNumber": [
        1,
        2,
        3,
        4,
        5,
        6,
        7,
        8,
        9,
        10,
        11,
        12,
        13,
        14,
        15,
        16,
        17,
        18,
        19,
        20,
        21,
        22,
        23,
        24,
        25,
        26,
        27,
        28,
        29,
        30,
        31,
        32,
        33,
        34,
        35,
        36,
        37,
        38,
        39,
        40,
        41,
        42,
        43,
        44,
        45,
        46,
        47,
        48,
        49,
        50,
        51,
        52,
        53,
        54,
        55,
        56,
        57,
        58,
        59,
        60,
        61,
        62,
        63,
        64,
        65,
        66,
        67,
        68,
        69,
        70,
        71,
        72,
        73,
        74,
        75,
        76,
        77,
        78,
        79,
        80,
        81,
        82,
        83,
        84,
        85,
        86,
        87,
        88,
        89,
        90,
        91,
        92,
        93,
        94,
        95,
        96,
        97,
        98,
        99,
        100,
        101,
        102,
        103,
        104,
        105,
        106,
        107
      ],
      "AcquisitionTime": [
        "144850.500000",
        "144853.100000",
        "144855.700000",
        "144858.300000",
        "144900.900000",
        "144903.500000",
        "144906.100000",
        "144908.700000",
        "144911.300000",
        "144913.900000",
        "144916.500000",
        "144919.100000",
        "144921.700000",
        "144924.300000",
        "144926.900000",
        "144929.500000",
        "144932.100000",
        "144934.700000",
        "144937.300000",
        "144939.900000",
        "144942.500000",
        "144945.100000",
        "144947.700000",
        "144950.300000",
        "144952.900000",
        "144955.500000",
        "144958.100000",
        "145000.700000",
        "145003.300000",
        "145005.900000",
        "145008.500000",
        "145011.100000",
        "145013.700000",
        "145016.300000",
        "145018.900000",
        "145021.500000",
        "145024.100000",
        "145026.700000",
        "145029.300000",
        "145031.900000",
        "145034.500000",
        "145037.100000",
        "145039.700000",
        "145042.300000",
        "145044.900000",
        "145047.500000",
        "145050.100000",
        "145052.700000",
        "145055.300000",
        "145057.900000",
        "145100.500000",
        "145103.100000",
        "145105.700000",
        "145108.300000",
        "145110.900000",
        "145113.500000",
        "145116.100000",
        "145118.700000",
        "145121.300000",
        "145123.900000",
        "145126.500000",
        "145129.100000",
        "145131.700000",
        "145134.300000",
        "145136.900000",
        "145139.500000",
        "145142.100000",
        "145144.700000",
        "145147.300000",
        "145149.900000",
        "145152.500000",
        "145155.100000",
        "145157.700000",
        "145200.300000",
        "145202.900000",
        "145205.500000",
        "145208.100000",
        "145210.700000",
        "145213.300000",
        "145215.900000",
        "145218.500000",
        "145221.100000",
        "145223.700000",
        "145226.300000",
        "145228.900000",
        "145231.500000",
        "145234.100000",
        "145236.700000",
        "145239.300000",
        "145241.900000",
        "145244.500000",
        "145247.100000",
        "145249.700000",
        "145252.300000",
        "145254.900000",
        "145257.500000",
        "145300.100000",
        "145302.700000",
        "145305.300000",
        "145307.900000",
        "145310.500000",
        "145313.100000",
        "145315.700000",
        "145318.300000",
        "145320.900000",
        "145323.500000",
        "145326.100000"
      ],
      "ContentTime": [
        "144951.589000",
        "144951.592000",
        "144951.601000",
        "144951.609000",
        "144951.612000",
        "144951.615000",
        "144951.618000",
        "144951.621000",
        "144951.624000",
        "144951.628000",
        "144951.631000",
        "144951.634000",
        "144951.637000",
        "144951.640000",
        "144951.643000",
        "144951.646000",
        "144951.649000",
        "144951.652000",
        "144951.656000",
        "144951.659000",
        "144951.662000",
        "144951.665000",
        "144951.668000",
        "145051.584000",
        "145051.588000",
        "145051.591000",
        "145051.594000",
        "145051.597000",
        "145051.600000",
        "145051.603000",
        "145051.606000",
        "145051.610000",
        "145051.613000",
        "145051.616000",
        "145051.619000",
        "145051.622000",
        "145051.625000",
        "145051.628000",
        "145051.642000",
        "145051.646000",
        "145051.649000",
        "145051.652000",
        "145051.655000",
        "145051.658000",
        "145051.661000",
        "145051.664000",
        "145151.584000",
        "145151.587000",
        "145151.590000",
        "145151.594000",
        "145151.597000",
        "145151.600000",
        "145151.603000",
        "145151.606000",
        "145151.610000",
        "145151.612000",
        "145151.616000",
        "145151.619000",
        "145151.622000",
        "145151.625000",
        "145151.628000",
        "145151.631000",
        "145151.634000",
        "145151.638000",
        "145151.641000",
        "145151.644000",
        "145151.647000",
        "145151.650000",
        "145151.653000",
        "145251.583000",
        "145251.586000",
        "145251.590000",
        "145251.593000",
        "145251.596000",
        "145251.599000",
        "145251.602000",
        "145251.606000",
        "145251.609000",
        "145251.612000",
        "145251.615000",
        "145251.618000",
        "145251.621000",
        "145251.624000",
        "145251.627000",
        "145251.631000",
        "145251.634000",
        "145251.637000",
        "145251.640000",
        "145251.644000",
        "145251.647000",
        "145251.650000",
        "145251.653000",
        "145328.016000",
        "145328.020000",
        "145328.023000",
        "145328.026000",
        "145328.029000",
        "145328.033000",
        "145328.036000",
        "145328.039000",
        "145328.042000",
        "145328.045000",
        "145328.048000",
        "145328.051000",
        "145328.054000",
        "145328.058000",
        "145328.061000"
      ],
      "InstanceCreationTime": [
        "144951.589000",
        "144951.592000",
        "144951.601000",
        "144951.609000",
        "144951.612000",
        "144951.615000",
        "144951.618000",
        "144951.621000",
        "144951.624000",
        "144951.628000",
        "144951.631000",
        "144951.634000",
        "144951.637000",
        "144951.640000",
        "144951.643000",
        "144951.646000",
        "144951.649000",
        "144951.652000",
        "144951.656000",
        "144951.659000",
        "144951.662000",
        "144951.665000",
        "144951.668000",
        "145051.584000",
        "145051.588000",
        "145051.591000",
        "145051.594000",
        "145051.597000",
        "145051.600000",
        "145051.603000",
        "145051.606000",
        "145051.610000",
        "145051.613000",
        "145051.616000",
        "145051.619000",
        "145051.622000",
        "145051.625000",
        "145051.628000",
        "145051.642000",
        "145051.646000",
        "145051.649000",
        "145051.652000",
        "145051.655000",
        "145051.658000",
        "145051.661000",
        "145051.664000",
        "145151.584000",
        "145151.587000",
        "145151.590000",
        "145151.594000",
        "145151.597000",
        "145151.600000",
        "145151.603000",
        "145151.606000",
        "145151.610000",
        "145151.612000",
        "145151.616000",
        "145151.619000",
        "145151.622000",
        "145151.625000",
        "145151.628000",
        "145151.631000",
        "145151.634000",
        "145151.638000",
        "145151.641000",
        "145151.644000",
        "145151.647000",
        "145151.650000",
        "145151.653000",
        "145251.583000",
        "145251.586000",
        "145251.590000",
        "145251.593000",
        "145251.596000",
        "145251.599000",
        "145251.602000",
        "145251.606000",
        "145251.609000",
        "145251.612000",
        "145251.615000",
        "145251.618000",
        "145251.621000",
        "145251.624000",
        "145251.627000",
        "145251.631000",
        "145251.634000",
        "145251.637000",
        "145251.640000",
        "145251.644000",
        "145251.647000",
        "145251.650000",
        "145251.653000",
        "145328.016000",
        "145328.020000",
        "145328.023000",
        "145328.026000",
        "145328.029000",
        "145328.033000",
        "145328.036000",
        "145328.039000",
        "145328.042000",
        "145328.045000",
        "145328.048000",
        "145328.051000",
        "145328.054000",
        "145328.058000",
        "145328.061000"
      ],
      "InstanceNumber": [
        1,
        2,
        3,
        4,
        5,
        6,
        7,
        8,
        9,
        10,
        11,
        12,
        13,
        14,
        15,
        16,
        17,
        18,
        19,
        20,
        21,
        22,
        23,
        24,
        25,
        26,
        27,
        28,
        29,
        30,
        31,
        32,
        33,
        34,
        35,
        36,
        37,
        38,
        39,
        40,
        41,
        42,
        43,
        44,
        45,
        46,
        47,
        48,
        49,
        50,
        51,
        52,
        53,
        54,
        55,
        56,
        57,
        58,
        59,
        60,
        61,
        62,
        63,
        64,
        65,
        66,
        67,
        68,
        69,
        70,
        71,
        72,
        73,
        74,
        75,
        76,
        77,
        78,
        79,
        80,
        81,
        82,
        83,
        84,
        85,
        86,
        87,
        88,
        89,
        90,
        91,
        92,
        93,
        94,
        95,
        96,
        97,
        98,
        99,
        100,
        101,
        102,
        103,
        104,
        105,
        106,
        107
      ],
      "LargestImagePixelValue": [
        2153,
        2436,
        395,
        361,
        393,
        446,
        384,
        409,
        488,
        384,
        426,
        2068,
        479,
        390,
        367,
        500,
        393,
        378,
        449,
        468,
        425,
        491,
        2205,
        408,
        495,
        362,
        442,
        367,
        393,
        413,
        424,
        346,
        477,
        2047,
        480,
        397,
        371,
        431,
        452,
        377,
        450,
        371,
        400,
        477,
        2329,
        358,
        407,
        547,
        481,
        403,
        382,
        421,
        394,
        427,
        368,
        1983,
        476,
        389,
        448,
        432,
        467,
        448,
        429,
        474,
        382,
        408,
        2287,
        473,
        451,
        460,
        394,
        447,
        397,
        447,
        361,
        372,
        455,
        2081,
        362,
        442,
        441,
        342,
        423,
        389,
        517,
        423,
        429,
        2312,
        360,
        439,
        381,
        479,
        457,
        437,
        435,
        409,
        467,
        2144,
        439,
        352,
        375,
        467,
        386,
        429,
        444,
        480,
        367
      ],
      "SequenceName": [
        "*ep_b0",
        "*ep_b0",
        "*ep_b1000#2",
        "*ep_b1000#3",
        "*ep_b1000#4",
        "*ep_b1000#5",
        "*ep_b1000#6",
        "*ep_b1000#7",
        "*ep_b1000#8",
        "*ep_b1000#9",
        "*ep_b1000#10",
        "*ep_b0",
        "*ep_b1000#12",
        "*ep_b1000#13",
        "*ep_b1000#14",
        "*ep_b1000#15",
        "*ep_b1000#16",
        "*ep_b1000#17",
        "*ep_b1000#18",
        "*ep_b1000#19",
        "*ep_b1000#20",
        "*ep_b1000#21",
        "*ep_b0",
        "*ep_b1000#23",
        "*ep_b1000#24",
        "*ep_b1000#25",
        "*ep_b1000#26",
        "*ep_b1000#27",
        "*ep_b1000#28",
        "*ep_b1000#29",
        "*ep_b1000#30",
        "*ep_b1000#31",
        "*ep_b1000#32",
        "*ep_b0",
        "*ep_b1000#34",
        "*ep_b1000#35",
        "*ep_b1000#36",
        "*ep_b1000#37",
        "*ep_b1000#38",
        "*ep_b1000#39",
        "*ep_b1000#40",
        "*ep_b1000#41",
        "*ep_b1000#42",
        "*ep_b1000#43",
        "*ep_b0",
        "*ep_b1000#45",
        "*ep_b1000#46",
        "*ep_b1000#47",
        "*ep_b1000#48",
        "*ep_b1000#49",
        "*ep_b1000#50",
        "*ep_b1000#51",
        "*ep_b1000#52",
        "*ep_b1000#53",
        "*ep_b1000#54",
        "*ep_b0",
        "*ep_b1000#56",
        "*ep_b1000#57",
        "*ep_b1000#58",
        "*ep_b1000#59",
        "*ep_b1000#60",
        "*ep_b1000#61",
        "*ep_b1000#62",
        "*ep_b1000#63",
        "*ep_b1000#64",
        "*ep_b1000#65",
        "*ep_b0",
        "*ep_b1000#67",
        "*ep_b1000#68",
        "*ep_b1000#69",
        "*ep_b1000#70",
        "*ep_b1000#71",
        "*ep_b1000#72",
        "*ep_b1000#73",
        "*ep_b1000#74",
        "*ep_b1000#75",
        "*ep_b1000#76",
        "*ep_b0",
        "*ep_b1000#78",
        "*ep_b1000#79",
        "*ep_b1000#80",
        "*ep_b1000#81",
        "*ep_b1000#82",
        "*ep_b1000#83",
        "*ep_b1000#84",
        "*ep_b1000#85",
        "*ep_b1000#86",
        "*ep_b0",
        "*ep_b1000#88",
        "*ep_b1000#89",
        "*ep_b1000#90",
        "*ep_b1000#91",
        "*ep_b1000#92",
        "*ep_b1000#93",
        "*ep_b1000#94",
        "*ep_b1000#95",
        "*ep_b1000#96",
        "*ep_b0",
        "*ep_b1000#98",
        "*ep_b1000#99",
        "*ep_b1000#100",
        "*ep_b1000#101",
        "*ep_b1000#102",
        "*ep_b1000#103",
        "*ep_b1000#104",
        "*ep_b1000#105",
        "*ep_b1000#106"
      ],
      "WindowCenter": [
        247,
        262,
        91,
        93,
        91,
        93,
        92,
        91,
        94,
        89,
        93,
        239,
        94,
        91,
        90,
        93,
        93,
        90,
        93,
        94,
        91,
        93,
        245,
        92,
        94,
        91,
        92,
        93,
        91,
        93,
        91,
        91,
        95,
        237,
        93,
        92,
        90,
        94,
        92,
        93,
        93,
        92,
        91,
        94,
        252,
        90,
        92,
        95,
        93,
        92,
        91,
        92,
        92,
        92,
        92,
        236,
        94,
        90,
        92,
        91,
        94,
        93,
        92,
        92,
        91,
        92,
        250,
        92,
        94,
        93,
        91,
        92,
        91,
        93,
        90,
        92,
        92,
        239,
        93,
        92,
        93,
        91,
        93,
        91,
        94,
        93,
        91,
        252,
        91,
        93,
        93,
        93,
        93,
        90,
        94,
        92,
        93,
        240,
        93,
        91,
        91,
        93,
        92,
        93,
        92,
        93,
        90
      ],
      "WindowWidth": [
        569,
        587,
        233,
        239,
        235,
        238,
        236,
        235,
        240,
        230,
        238,
        555,
        240,
        235,
        233,
        239,
        238,
        232,
        239,
        240,
        234,
        238,
        562,
        237,
        241,
        235,
        236,
        238,
        235,
        238,
        233,
        235,
        242,
        552,
        238,
        237,
        232,
        240,
        236,
        239,
        239,
        237,
        235,
        240,
        571,
        233,
        236,
        242,
        238,
        237,
        234,
        236,
        236,
        237,
        237,
        551,
        240,
        232,
        237,
        234,
        240,
        238,
        236,
        236,
        234,
        236,
        570,
        236,
        240,
        238,
        235,
        236,
        234,
        239,
        233,
        237,
        236,
        555,
        238,
        236,
        238,
        234,
        238,
        235,
        240,
        238,
        235,
        572,
        235,
        238,
        239,
        238,
        237,
        232,
        240,
        237,
        237,
        555,
        238,
        234,
        234,
        238,
        236,
        238,
        235,
        238,
        232
      ]
    },
    "slices": {}
  },
  "CoilCombinationMethod": "Adaptive Combine",
  "NonlinearGradientCorrection": false,
  "PulseSequenceType": "Spin Echo EPI",
  "B0FieldSource": "pepolar_ses-2"
}
