{
  "AcquisitionMatrixPE": 96,
  "AcquisitionNumber": 1,
  "BandwidthPerPixelPhaseEncode": 18.939,
  "BaseResolution": 96,
  "BodyPartExamined": "BRAIN",
  "ConsistencyInfo": "N4_VE11C_LATEST_20160120",
  "ConversionSoftware": "dcm2niix",
  "ConversionSoftwareVersion": "v1.0.20170923 (OpenJPEG build) GCC6.3.0",
  "DerivedVendorReportedEchoSpacing": 0.000550011,
  "DeviceSerialNumber": "66112",
  "DwellTime": 2.2e-06,
  "EchoTime": 0.033,
  "EchoTrainLength": 96,
  "EffectiveEchoSpacing": 0.000550011,
  "FlipAngle": 59,
  "ImageType": [
    "ORIGINAL",
    "PRIMARY",
    "FMRI",
    "NONE",
    "ND",
    "NORM",
    "MOSAIC"
  ],
  "InstitutionAddress": "Maynard_3_Hanover_NH_US_03755",
  "InstitutionName": "Dartmouth_College_-_PBS",
  "MagneticFieldStrength": 3,
  "Manufacturer": "Siemens",
  "ManufacturersModelName": "Prisma",
  "Modality": "MR",
  "MultibandAccelerationFactor": 4,
  "PercentPhaseFOV": 100,
  "PhaseEncodingDirection": "j-",
  "PhaseEncodingSteps": 96,
  "PhaseResolution": 1,
  "ProcedureStepDescription": "Gobbini_Matteo_1038_hyperface",
  "ProtocolName": "func_run-01_task-localizer",
  "PulseSequenceDetails": "%SiemensSeq%_ep2d_bold",
  "ReceiveCoilActiveElements": "HEA;HEP",
  "ReceiveCoilName": "Head_32",
  "ReconMatrixPE": 96,
  "RepetitionTime": 1,
  "ScanOptions": "FS",
  "ScanningSequence": "EP",
  "SequenceName": "_epfid2d1_96",
  "SequenceVariant": "SK",
  "SeriesDescription": "func_run-01_task-localizer",
  "SliceTiming": [
    0.735,
    0,
    0.49,
    0.08,
    0.57,
    0.1625,
    0.6525,
    0.325,
    0.815,
    0.4075,
    0.8975,
    0.245,
    0.735,
    0,
    0.49,
    0.08,
    0.57,
    0.1625,
    0.6525,
    0.325,
    0.815,
    0.4075,
    0.8975,
    0.245,
    0.735,
    0,
    0.49,
    0.08,
    0.57,
    0.1625,
    0.6525,
    0.325,
    0.815,
    0.4075,
    0.8975,
    0.245,
    0.735,
    0,
    0.49,
    0.08,
    0.57,
    0.1625,
    0.6525,
    0.325,
    0.815,
    0.4075,
    0.8975,
    0.245
  ],
  "SoftwareVersions": "syngo_MR_E11",
  "StationName": "AWP66112",
  "TotalReadoutTime": 0.0522511,
  "time": {
    "samples": {
      "AcquisitionNumber": [
        1,
        2,
        3,
        4,
        5,
        6,
        7,
        8,
        9,
        10,
        11,
        12,
        13,
        14,
        15,
        16,
        17,
        18,
        19,
        20,
        21,
        22,
        23,
        24,
        25,
        26,
        27,
        28,
        29,
        30,
        31,
        32,
        33,
        34,
        35,
        36,
        37,
        38,
        39,
        40,
        41,
        42,
        43,
        44,
        45,
        46,
        47,
        48,
        49,
        50,
        51,
        52,
        53,
        54,
        55,
        56,
        57,
        58,
        59,
        60,
        61,
        62,
        63,
        64,
        65,
        66,
        67,
        68,
        69,
        70,
        71,
        72,
        73,
        74,
        75,
        76,
        77,
        78,
        79,
        80,
        81,
        82,
        83,
        84,
        85,
        86,
        87,
        88,
        89,
        90,
        91,
        92,
        93,
        94,
        95,
        96,
        97,
        98,
        99,
        100,
        101,
        102,
        103,
        104,
        105,
        106,
        107,
        108,
        109,
        110,
        111,
        112,
        113,
        114,
        115,
        116,
        117,
        118,
        119,
        120,
        121,
        122,
        123,
        124,
        125,
        126,
        127,
        128,
        129,
        130,
        131,
        132,
        133,
        134,
        135,
        136,
        137,
        138,
        139,
        140,
        141,
        142,
        143,
        144,
        145,
        146,
        147,
        148,
        149,
        150,
        151,
        152,
        153,
        154,
        155,
        156,
        157,
        158,
        159,
        160,
        161,
        162,
        163,
        164,
        165,
        166,
        167,
        168,
        169,
        170,
        171,
        172,
        173,
        174,
        175,
        176,
        177,
        178,
        179,
        180,
        181,
        182,
        183,
        184,
        185,
        186,
        187,
        188,
        189,
        190,
        191,
        192,
        193,
        194,
        195,
        196,
        197,
        198,
        199,
        200,
        201,
        202,
        203,
        204,
        205,
        206,
        207,
        208,
        209,
        210,
        211,
        212,
        213,
        214,
        215,
        216,
        217,
        218,
        219,
        220,
        221,
        222,
        223,
        224,
        225,
        226,
        227,
        228,
        229,
        230,
        231,
        232,
        233,
        234,
        235,
        236
      ],
      "AcquisitionTime": [
        "114426.130000",
        "114427.130000",
        "114428.130000",
        "114429.130000",
        "114430.130000",
        "114431.130000",
        "114432.130000",
        "114433.130000",
        "114434.130000",
        "114435.130000",
        "114436.130000",
        "114437.130000",
        "114438.130000",
        "114439.130000",
        "114440.130000",
        "114441.130000",
        "114442.130000",
        "114443.130000",
        "114444.130000",
        "114445.130000",
        "114446.130000",
        "114447.130000",
        "114448.130000",
        "114449.130000",
        "114450.130000",
        "114451.130000",
        "114452.130000",
        "114453.130000",
        "114454.130000",
        "114455.130000",
        "114456.130000",
        "114457.130000",
        "114458.130000",
        "114459.130000",
        "114500.130000",
        "114501.130000",
        "114502.130000",
        "114503.130000",
        "114504.130000",
        "114505.130000",
        "114506.130000",
        "114507.130000",
        "114508.130000",
        "114509.130000",
        "114510.130000",
        "114511.130000",
        "114512.130000",
        "114513.130000",
        "114514.130000",
        "114515.130000",
        "114516.130000",
        "114517.130000",
        "114518.130000",
        "114519.130000",
        "114520.130000",
        "114521.130000",
        "114522.130000",
        "114523.130000",
        "114524.130000",
        "114525.130000",
        "114526.130000",
        "114527.130000",
        "114528.130000",
        "114529.130000",
        "114530.130000",
        "114531.130000",
        "114532.130000",
        "114533.130000",
        "114534.130000",
        "114535.130000",
        "114536.130000",
        "114537.130000",
        "114538.130000",
        "114539.130000",
        "114540.130000",
        "114541.130000",
        "114542.130000",
        "114543.130000",
        "114544.130000",
        "114545.130000",
        "114546.130000",
        "114547.130000",
        "114548.130000",
        "114549.130000",
        "114550.130000",
        "114551.130000",
        "114552.130000",
        "114553.130000",
        "114554.130000",
        "114555.130000",
        "114556.130000",
        "114557.130000",
        "114558.130000",
        "114559.130000",
        "114600.130000",
        "114601.130000",
        "114602.130000",
        "114603.130000",
        "114604.130000",
        "114605.130000",
        "114606.130000",
        "114607.130000",
        "114608.130000",
        "114609.130000",
        "114610.130000",
        "114611.130000",
        "114612.130000",
        "114613.130000",
        "114614.130000",
        "114615.130000",
        "114616.130000",
        "114617.130000",
        "114618.130000",
        "114619.130000",
        "114620.130000",
        "114621.130000",
        "114622.130000",
        "114623.130000",
        "114624.130000",
        "114625.130000",
        "114626.130000",
        "114627.130000",
        "114628.130000",
        "114629.130000",
        "114630.130000",
        "114631.130000",
        "114632.130000",
        "114633.130000",
        "114634.130000",
        "114635.130000",
        "114636.130000",
        "114637.130000",
        "114638.130000",
        "114639.130000",
        "114640.130000",
        "114641.130000",
        "114642.130000",
        "114643.130000",
        "114644.130000",
        "114645.130000",
        "114646.130000",
        "114647.130000",
        "114648.130000",
        "114649.130000",
        "114650.130000",
        "114651.130000",
        "114652.130000",
        "114653.130000",
        "114654.130000",
        "114655.130000",
        "114656.130000",
        "114657.130000",
        "114658.130000",
        "114659.130000",
        "114700.130000",
        "114701.130000",
        "114702.130000",
        "114703.130000",
        "114704.130000",
        "114705.130000",
        "114706.130000",
        "114707.130000",
        "114708.130000",
        "114709.130000",
        "114710.130000",
        "114711.130000",
        "114712.130000",
        "114713.130000",
        "114714.130000",
        "114715.130000",
        "114716.130000",
        "114717.130000",
        "114718.130000",
        "114719.130000",
        "114720.130000",
        "114721.130000",
        "114722.130000",
        "114723.130000",
        "114724.130000",
        "114725.130000",
        "114726.130000",
        "114727.130000",
        "114728.130000",
        "114729.130000",
        "114730.130000",
        "114731.130000",
        "114732.130000",
        "114733.130000",
        "114734.130000",
        "114735.130000",
        "114736.130000",
        "114737.130000",
        "114738.130000",
        "114739.130000",
        "114740.130000",
        "114741.130000",
        "114742.130000",
        "114743.130000",
        "114744.130000",
        "114745.130000",
        "114746.130000",
        "114747.130000",
        "114748.130000",
        "114749.130000",
        "114750.130000",
        "114751.130000",
        "114752.130000",
        "114753.130000",
        "114754.130000",
        "114755.130000",
        "114756.130000",
        "114757.130000",
        "114758.130000",
        "114759.130000",
        "114800.130000",
        "114801.130000",
        "114802.130000",
        "114803.130000",
        "114804.130000",
        "114805.130000",
        "114806.130000",
        "114807.130000",
        "114808.130000",
        "114809.130000",
        "114810.130000",
        "114811.130000",
        "114812.130000",
        "114813.130000",
        "114814.130000",
        "114815.130000",
        "114816.130000",
        "114817.130000",
        "114818.130000",
        "114819.130000",
        "114820.130000",
        "114821.130000"
      ],
      "ContentTime": [
        "114427.586000",
        "114428.389000",
        "114429.386000",
        "114430.392000",
        "114431.403000",
        "114432.395000",
        "114433.393000",
        "114434.389000",
        "114435.377000",
        "114436.390000",
        "114437.398000",
        "114438.394000",
        "114439.390000",
        "114440.386000",
        "114441.386000",
        "114442.374000",
        "114443.367000",
        "114444.412000",
        "114445.375000",
        "114446.379000",
        "114447.363000",
        "114448.412000",
        "114449.404000",
        "114450.410000",
        "114451.445000",
        "114452.367000",
        "114453.423000",
        "114454.425000",
        "114455.358000",
        "114456.390000",
        "114457.401000",
        "114458.390000",
        "114459.425000",
        "114500.381000",
        "114501.391000",
        "114502.374000",
        "114503.404000",
        "114504.384000",
        "114505.407000",
        "114506.434000",
        "114507.386000",
        "114508.419000",
        "114509.373000",
        "114510.357000",
        "114511.388000",
        "114512.365000",
        "114513.385000",
        "114514.370000",
        "114515.381000",
        "114516.425000",
        "114517.398000",
        "114518.399000",
        "114519.387000",
        "114520.382000",
        "114521.407000",
        "114522.381000",
        "114523.400000",
        "114524.389000",
        "114525.385000",
        "114526.428000",
        "114527.390000",
        "114528.449000",
        "114529.371000",
        "114530.417000",
        "114531.371000",
        "114532.384000",
        "114533.369000",
        "114534.368000",
        "114535.401000",
        "114536.385000",
        "114537.374000",
        "114538.375000",
        "114539.381000",
        "114540.394000",
        "114541.391000",
        "114542.393000",
        "114543.419000",
        "114544.420000",
        "114545.393000",
        "114546.399000",
        "114547.362000",
        "114548.382000",
        "114549.399000",
        "114550.372000",
        "114551.395000",
        "114552.403000",
        "114553.383000",
        "114554.379000",
        "114555.395000",
        "114556.390000",
        "114557.387000",
        "114558.388000",
        "114559.383000",
        "114600.390000",
        "114601.376000",
        "114602.394000",
        "114603.412000",
        "114604.394000",
        "114605.389000",
        "114606.368000",
        "114607.388000",
        "114608.400000",
        "114609.372000",
        "114610.394000",
        "114611.367000",
        "114612.393000",
        "114613.397000",
        "114614.393000",
        "114615.394000",
        "114616.390000",
        "114617.407000",
        "114618.360000",
        "114619.386000",
        "114620.478000",
        "114621.409000",
        "114622.382000",
        "114623.421000",
        "114624.399000",
        "114625.373000",
        "114626.359000",
        "114627.384000",
        "114628.361000",
        "114629.401000",
        "114630.412000",
        "114631.409000",
        "114632.372000",
        "114633.392000",
        "114634.390000",
        "114635.354000",
        "114636.392000",
        "114637.405000",
        "114638.438000",
        "114639.401000",
        "114640.412000",
        "114641.400000",
        "114642.403000",
        "114643.392000",
        "114644.383000",
        "114645.392000",
        "114646.359000",
        "114647.375000",
        "114648.407000",
        "114649.396000",
        "114650.415000",
        "114651.378000",
        "114652.392000",
        "114653.368000",
        "114654.421000",
        "114655.383000",
        "114656.367000",
        "114657.401000",
        "114658.391000",
        "114659.398000",
        "114700.373000",
        "114701.395000",
        "114702.389000",
        "114703.366000",
        "114704.368000",
        "114705.386000",
        "114706.423000",
        "114707.387000",
        "114708.408000",
        "114709.411000",
        "114710.384000",
        "114711.384000",
        "114712.409000",
        "114713.393000",
        "114714.431000",
        "114715.400000",
        "114716.440000",
        "114717.407000",
        "114718.402000",
        "114719.401000",
        "114720.396000",
        "114721.359000",
        "114722.378000",
        "114723.401000",
        "114724.389000",
        "114725.379000",
        "114726.408000",
        "114727.341000",
        "114728.408000",
        "114729.421000",
        "114730.376000",
        "114731.373000",
        "114732.377000",
        "114733.402000",
        "114734.409000",
        "114735.396000",
        "114736.371000",
        "114737.386000",
        "114738.383000",
        "114739.374000",
        "114740.404000",
        "114741.417000",
        "114742.380000",
        "114743.405000",
        "114744.442000",
        "114745.379000",
        "114746.383000",
        "114747.450000",
        "114748.404000",
        "114749.371000",
        "114750.371000",
        "114751.395000",
        "114752.391000",
        "114753.393000",
        "114754.387000",
        "114755.381000",
        "114756.407000",
        "114757.387000",
        "114758.349000",
        "114759.382000",
        "114800.377000",
        "114801.396000",
        "114802.415000",
        "114803.382000",
        "114804.405000",
        "114805.409000",
        "114806.402000",
        "114807.414000",
        "114808.397000",
        "114809.394000",
        "114810.382000",
        "114811.426000",
        "114812.374000",
        "114813.377000",
        "114814.392000",
        "114815.384000",
        "114816.380000",
        "114817.403000",
        "114818.346000",
        "114819.404000",
        "114820.376000",
        "114821.374000",
        "114822.442000"
      ],
      "InstanceCreationTime": [
        "114427.586000",
        "114428.389000",
        "114429.386000",
        "114430.392000",
        "114431.403000",
        "114432.395000",
        "114433.393000",
        "114434.389000",
        "114435.377000",
        "114436.390000",
        "114437.398000",
        "114438.394000",
        "114439.390000",
        "114440.386000",
        "114441.386000",
        "114442.374000",
        "114443.367000",
        "114444.412000",
        "114445.375000",
        "114446.379000",
        "114447.363000",
        "114448.412000",
        "114449.404000",
        "114450.410000",
        "114451.445000",
        "114452.367000",
        "114453.423000",
        "114454.425000",
        "114455.358000",
        "114456.390000",
        "114457.401000",
        "114458.390000",
        "114459.425000",
        "114500.381000",
        "114501.391000",
        "114502.374000",
        "114503.404000",
        "114504.384000",
        "114505.407000",
        "114506.434000",
        "114507.386000",
        "114508.419000",
        "114509.373000",
        "114510.357000",
        "114511.388000",
        "114512.365000",
        "114513.385000",
        "114514.370000",
        "114515.381000",
        "114516.425000",
        "114517.398000",
        "114518.399000",
        "114519.387000",
        "114520.382000",
        "114521.407000",
        "114522.381000",
        "114523.400000",
        "114524.389000",
        "114525.385000",
        "114526.428000",
        "114527.390000",
        "114528.449000",
        "114529.371000",
        "114530.417000",
        "114531.371000",
        "114532.384000",
        "114533.369000",
        "114534.368000",
        "114535.401000",
        "114536.385000",
        "114537.374000",
        "114538.375000",
        "114539.381000",
        "114540.394000",
        "114541.391000",
        "114542.393000",
        "114543.419000",
        "114544.420000",
        "114545.393000",
        "114546.399000",
        "114547.362000",
        "114548.382000",
        "114549.399000",
        "114550.372000",
        "114551.395000",
        "114552.403000",
        "114553.383000",
        "114554.379000",
        "114555.395000",
        "114556.390000",
        "114557.387000",
        "114558.388000",
        "114559.383000",
        "114600.390000",
        "114601.376000",
        "114602.394000",
        "114603.412000",
        "114604.394000",
        "114605.389000",
        "114606.368000",
        "114607.388000",
        "114608.400000",
        "114609.372000",
        "114610.394000",
        "114611.367000",
        "114612.393000",
        "114613.397000",
        "114614.393000",
        "114615.394000",
        "114616.390000",
        "114617.407000",
        "114618.360000",
        "114619.386000",
        "114620.478000",
        "114621.409000",
        "114622.382000",
        "114623.421000",
        "114624.399000",
        "114625.373000",
        "114626.359000",
        "114627.384000",
        "114628.361000",
        "114629.401000",
        "114630.412000",
        "114631.409000",
        "114632.372000",
        "114633.392000",
        "114634.390000",
        "114635.354000",
        "114636.392000",
        "114637.405000",
        "114638.438000",
        "114639.401000",
        "114640.412000",
        "114641.400000",
        "114642.403000",
        "114643.392000",
        "114644.383000",
        "114645.392000",
        "114646.359000",
        "114647.375000",
        "114648.407000",
        "114649.396000",
        "114650.415000",
        "114651.378000",
        "114652.392000",
        "114653.368000",
        "114654.421000",
        "114655.383000",
        "114656.367000",
        "114657.401000",
        "114658.391000",
        "114659.398000",
        "114700.373000",
        "114701.395000",
        "114702.389000",
        "114703.366000",
        "114704.368000",
        "114705.386000",
        "114706.423000",
        "114707.387000",
        "114708.408000",
        "114709.411000",
        "114710.384000",
        "114711.384000",
        "114712.409000",
        "114713.393000",
        "114714.431000",
        "114715.400000",
        "114716.440000",
        "114717.407000",
        "114718.402000",
        "114719.401000",
        "114720.396000",
        "114721.359000",
        "114722.378000",
        "114723.401000",
        "114724.389000",
        "114725.379000",
        "114726.408000",
        "114727.341000",
        "114728.408000",
        "114729.421000",
        "114730.376000",
        "114731.373000",
        "114732.377000",
        "114733.402000",
        "114734.409000",
        "114735.396000",
        "114736.371000",
        "114737.386000",
        "114738.383000",
        "114739.374000",
        "114740.404000",
        "114741.417000",
        "114742.380000",
        "114743.405000",
        "114744.442000",
        "114745.379000",
        "114746.383000",
        "114747.450000",
        "114748.404000",
        "114749.371000",
        "114750.371000",
        "114751.395000",
        "114752.391000",
        "114753.393000",
        "114754.387000",
        "114755.381000",
        "114756.407000",
        "114757.387000",
        "114758.349000",
        "114759.382000",
        "114800.377000",
        "114801.396000",
        "114802.415000",
        "114803.382000",
        "114804.405000",
        "114805.409000",
        "114806.402000",
        "114807.414000",
        "114808.397000",
        "114809.394000",
        "114810.382000",
        "114811.426000",
        "114812.374000",
        "114813.377000",
        "114814.392000",
        "114815.384000",
        "114816.380000",
        "114817.403000",
        "114818.346000",
        "114819.404000",
        "114820.376000",
        "114821.374000",
        "114822.442000"
      ],
      "InstanceNumber": [
        1,
        2,
        3,
        4,
        5,
        6,
        7,
        8,
        9,
        10,
        11,
        12,
        13,
        14,
        15,
        16,
        17,
        18,
        19,
        20,
        21,
        22,
        23,
        24,
        25,
        26,
        27,
        28,
        29,
        30,
        31,
        32,
        33,
        34,
        35,
        36,
        37,
        38,
        39,
        40,
        41,
        42,
        43,
        44,
        45,
        46,
        47,
        48,
        49,
        50,
        51,
        52,
        53,
        54,
        55,
        56,
        57,
        58,
        59,
        60,
        61,
        62,
        63,
        64,
        65,
        66,
        67,
        68,
        69,
        70,
        71,
        72,
        73,
        74,
        75,
        76,
        77,
        78,
        79,
        80,
        81,
        82,
        83,
        84,
        85,
        86,
        87,
        88,
        89,
        90,
        91,
        92,
        93,
        94,
        95,
        96,
        97,
        98,
        99,
        100,
        101,
        102,
        103,
        104,
        105,
        106,
        107,
        108,
        109,
        110,
        111,
        112,
        113,
        114,
        115,
        116,
        117,
        118,
        119,
        120,
        121,
        122,
        123,
        124,
        125,
        126,
        127,
        128,
        129,
        130,
        131,
        132,
        133,
        134,
        135,
        136,
        137,
        138,
        139,
        140,
        141,
        142,
        143,
        144,
        145,
        146,
        147,
        148,
        149,
        150,
        151,
        152,
        153,
        154,
        155,
        156,
        157,
        158,
        159,
        160,
        161,
        162,
        163,
        164,
        165,
        166,
        167,
        168,
        169,
        170,
        171,
        172,
        173,
        174,
        175,
        176,
        177,
        178,
        179,
        180,
        181,
        182,
        183,
        184,
        185,
        186,
        187,
        188,
        189,
        190,
        191,
        192,
        193,
        194,
        195,
        196,
        197,
        198,
        199,
        200,
        201,
        202,
        203,
        204,
        205,
        206,
        207,
        208,
        209,
        210,
        211,
        212,
        213,
        214,
        215,
        216,
        217,
        218,
        219,
        220,
        221,
        222,
        223,
        224,
        225,
        226,
        227,
        228,
        229,
        230,
        231,
        232,
        233,
        234,
        235,
        236
      ],
      "LargestImagePixelValue": [
        941,
        897,
        966,
        1076,
        925,
        832,
        875,
        873,
        838,
        846,
        876,
        818,
        815,
        831,
        886,
        839,
        868,
        921,
        813,
        823,
        823,
        812,
        778,
        839,
        802,
        796,
        802,
        807,
        830,
        849,
        848,
        826,
        802,
        810,
        771,
        796,
        810,
        828,
        842,
        860,
        826,
        845,
        848,
        834,
        839,
        829,
        826,
        857,
        864,
        867,
        873,
        823,
        835,
        868,
        841,
        848,
        863,
        839,
        887,
        897,
        859,
        867,
        855,
        859,
        865,
        857,
        861,
        888,
        849,
        965,
        866,
        913,
        977,
        999,
        1113,
        958,
        900,
        866,
        861,
        810,
        773,
        740,
        817,
        792,
        762,
        782,
        778,
        815,
        821,
        831,
        857,
        859,
        860,
        840,
        873,
        847,
        855,
        886,
        869,
        886,
        891,
        905,
        874,
        937,
        881,
        848,
        907,
        877,
        916,
        1163,
        1054,
        862,
        969,
        882,
        794,
        834,
        837,
        796,
        804,
        771,
        782,
        857,
        878,
        907,
        900,
        899,
        893,
        886,
        1104,
        834,
        865,
        854,
        798,
        792,
        795,
        823,
        845,
        838,
        830,
        784,
        794,
        822,
        843,
        782,
        872,
        884,
        887,
        890,
        1046,
        977,
        863,
        859,
        816,
        796,
        769,
        794,
        810,
        794,
        796,
        793,
        793,
        750,
        822,
        820,
        862,
        885,
        909,
        856,
        859,
        889,
        896,
        878,
        874,
        892,
        888,
        858,
        882,
        879,
        850,
        887,
        868,
        871,
        902,
        889,
        853,
        968,
        883,
        979,
        1160,
        993,
        854,
        906,
        836,
        804,
        866,
        902,
        795,
        822,
        790,
        821,
        792,
        826,
        843,
        867,
        883,
        892,
        875,
        886,
        881,
        859,
        871,
        862,
        881,
        865,
        873,
        881,
        885,
        897,
        1003,
        933,
        888,
        904,
        936,
        875,
        898,
        927,
        889,
        945,
        1143,
        1037,
        878,
        847,
        921,
        853,
        849,
        992
      ],
      "WindowCenter": [
        371,
        370,
        370,
        371,
        369,
        369,
        369,
        368,
        369,
        369,
        369,
        370,
        370,
        370,
        371,
        370,
        370,
        370,
        369,
        370,
        369,
        369,
        370,
        371,
        370,
        371,
        370,
        370,
        371,
        370,
        370,
        370,
        370,
        370,
        370,
        369,
        369,
        369,
        369,
        369,
        369,
        369,
        369,
        370,
        369,
        369,
        369,
        369,
        369,
        369,
        369,
        369,
        369,
        370,
        370,
        370,
        371,
        370,
        371,
        371,
        371,
        370,
        370,
        370,
        371,
        371,
        371,
        371,
        370,
        371,
        370,
        370,
