{
  "AcquisitionMatrixPE": 120,
  "AcquisitionNumber": 1,
  "BandwidthPerPixelPhaseEncode": 13.889,
  "BaseResolution": 120,
  "BodyPartExamined": "BRAIN",
  "ConsistencyInfo": "N4_VE11C_LATEST_20160120",
  "ConversionSoftware": "dcm2niix",
  "ConversionSoftwareVersion": "v1.0.20171215 (OpenJPEG build) GCC6.3.0",
  "DerivedVendorReportedEchoSpacing": 0.000599995,
  "DeviceSerialNumber": "66112",
  "DwellTime": 2e-06,
  "EchoTime": 0.103,
  "EchoTrainLength": 120,
  "EffectiveEchoSpacing": 0.000599995,
  "FlipAngle": 90,
  "ImageOrientationPatientDICOM": [
    0.999528,
    -0.00279944,
    0.0306045,
    0.00209342,
    0.999731,
    0.0230769
  ],
  "ImageType": [
    "ORIGINAL",
    "PRIMARY",
    "DIFFUSION",
    "NONE",
    "ND",
    "NORM",
    "MOSAIC"
  ],
  "InPlanePhaseEncodingDirectionDICOM": "COL",
  "InstitutionAddress": "Maynard_3_Hanover_NH_US_03755",
  "InstitutionName": "Dartmouth_College_-_PBS",
  "InstitutionalDepartmentName": "Department",
  "MRAcquisitionType": "2D",
  "MagneticFieldStrength": 3,
  "Manufacturer": "Siemens",
  "ManufacturersModelName": "Prisma",
  "Modality": "MR",
  "MultibandAccelerationFactor": 4,
  "PatientPosition": "HFS",
  "PercentPhaseFOV": 100,
  "PhaseEncodingDirection": "j-",
  "PhaseEncodingSteps": 120,
  "PhaseResolution": 1,
  "PixelBandwidth": 2085,
  "ProcedureStepDescription": "Gobbini_Matteo_1038_hyperface",
  "ProtocolName": "dwi_acq-2.0mmXhardi96Xsms4X11b0",
  "PulseSequenceDetails": "%SiemensSeq%_ep2d_diff",
  "ReceiveCoilActiveElements": "HEA;HEP",
  "ReceiveCoilName": "Head_32",
  "ReconMatrixPE": 120,
  "RepetitionTime": 2.6,
  "SAR": 0.248827,
  "ScanOptions": "FS",
  "ScanningSequence": "EP",
  "SequenceName": "_ep_b0",
  "SequenceVariant": "SK_SP",
  "SeriesDescription": "dwi_acq-2.0mmXhardi96Xsms4X11b0",
  "SeriesNumber": 65,
  "ShimSetting": [
    4153,
    -7719,
    -7470,
    324,
    -2,
    79,
    -69,
    64
  ],
  "SliceThickness": 2,
  "SliceTiming": [
    1.935,
    0,
    1.29,
    0.16,
    1.45,
    0.3225,
    1.6125,
    0.4825,
    1.7725,
    0.805,
    2.095,
    0.9675,
    2.2575,
    1.1275,
    2.4175,
    0.645,
    1.935,
    0,
    1.29,
    0.16,
    1.45,
    0.3225,
    1.6125,
    0.4825,
    1.7725,
    0.805,
    2.095,
    0.9675,
    2.2575,
    1.1275,
    2.4175,
    0.645,
    1.935,
    0,
    1.29,
    0.16,
    1.45,
    0.3225,
    1.6125,
    0.4825,
    1.7725,
    0.805,
    2.095,
    0.9675,
    2.2575,
    1.1275,
    2.4175,
    0.645,
    1.935,
    0,
    1.29,
    0.16,
    1.45,
    0.3225,
    1.6125,
    0.4825,
    1.7725,
    0.805,
    2.095,
    0.9675,
    2.2575,
    1.1275,
    2.4175,
    0.645
  ],
  "SoftwareVersions": "syngo_MR_E11",
  "SpacingBetweenSlices": 2,
  "StationName": "AWP66112",
  "TotalReadoutTime": 0.0713994,
  "TxRefAmp": 228.465,
  "time": {
    "samples": {
      "AcquisitionNumber": [
        1,
        2,
        3,
        4,
        5,
        6,
        7,
        8,
        9,
        10,
        11,
        12,
        13,
        14,
        15,
        16,
        17,
        18,
        19,
        20,
        21,
        22,
        23,
        24,
        25,
        26,
        27,
        28,
        29,
        30,
        31,
        32,
        33,
        34,
        35,
        36,
        37,
        38,
        39,
        40,
        41,
        42,
        43,
        44,
        45,
        46,
        47,
        48,
        49,
        50,
        51,
        52,
        53,
        54,
        55,
        56,
        57,
        58,
        59,
        60,
        61,
        62,
        63,
        64,
        65,
        66,
        67,
        68,
        69,
        70,
        71,
        72,
        73,
        74,
        75,
        76,
        77,
        78,
        79,
        80,
        81,
        82,
        83,
        84,
        85,
        86,
        87,
        88,
        89,
        90,
        91,
        92,
        93,
        94,
        95,
        96,
        97,
        98,
        99,
        100,
        101,
        102,
        103,
        104,
        105,
        106,
        107
      ],
      "AcquisitionTime": [
        "105221.507500",
        "105224.107500",
        "105226.707500",
        "105229.307500",
        "105231.907500",
        "105234.507500",
        "105237.107500",
        "105239.707500",
        "105242.307500",
        "105244.907500",
        "105247.507500",
        "105250.107500",
        "105252.707500",
        "105255.307500",
        "105257.907500",
        "105300.507500",
        "105303.107500",
        "105305.707500",
        "105308.307500",
        "105310.907500",
        "105313.507500",
        "105316.107500",
        "105318.707500",
        "105321.307500",
        "105323.907500",
        "105326.507500",
        "105329.107500",
        "105331.707500",
        "105334.307500",
        "105336.907500",
        "105339.507500",
        "105342.107500",
        "105344.707500",
        "105347.307500",
        "105349.907500",
        "105352.507500",
        "105355.107500",
        "105357.707500",
        "105400.307500",
        "105402.907500",
        "105405.507500",
        "105408.107500",
        "105410.707500",
        "105413.307500",
        "105415.907500",
        "105418.507500",
        "105421.107500",
        "105423.707500",
        "105426.307500",
        "105428.907500",
        "105431.507500",
        "105434.107500",
        "105436.707500",
        "105439.307500",
        "105441.907500",
        "105444.507500",
        "105447.107500",
        "105449.707500",
        "105452.307500",
        "105454.907500",
        "105457.507500",
        "105500.107500",
        "105502.707500",
        "105505.307500",
        "105507.907500",
        "105510.507500",
        "105513.107500",
        "105515.707500",
        "105518.307500",
        "105520.907500",
        "105523.507500",
        "105526.107500",
        "105528.707500",
        "105531.307500",
        "105533.907500",
        "105536.507500",
        "105539.107500",
        "105541.707500",
        "105544.307500",
        "105546.907500",
        "105549.507500",
        "105552.107500",
        "105554.707500",
        "105557.307500",
        "105559.907500",
        "105602.507500",
        "105605.107500",
        "105607.707500",
        "105610.307500",
        "105612.907500",
        "105615.507500",
        "105618.107500",
        "105620.707500",
        "105623.307500",
        "105625.907500",
        "105628.507500",
        "105631.107500",
        "105633.707500",
        "105636.307500",
        "105638.907500",
        "105641.507500",
        "105644.107500",
        "105646.707500",
        "105649.307500",
        "105651.907500",
        "105654.507500",
        "105657.107500"
      ],
      "ContentTime": [
        "105325.962000",
        "105325.966000",
        "105325.969000",
        "105325.972000",
        "105325.975000",
        "105325.979000",
        "105325.982000",
        "105325.985000",
        "105325.988000",
        "105325.991000",
        "105325.994000",
        "105325.997000",
        "105326.002000",
        "105326.005000",
        "105326.008000",
        "105326.019000",
        "105326.030000",
        "105326.034000",
        "105326.037000",
        "105326.040000",
        "105326.043000",
        "105326.046000",
        "105326.049000",
        "105326.053000",
        "105326.056000",
        "105425.958000",
        "105425.962000",
        "105425.965000",
        "105425.968000",
        "105425.971000",
        "105425.975000",
        "105425.978000",
        "105425.981000",
        "105425.984000",
        "105425.987000",
        "105425.990000",
        "105425.994000",
        "105425.997000",
        "105426.001000",
        "105426.004000",
        "105426.007000",
        "105426.011000",
        "105426.014000",
        "105426.017000",
        "105426.020000",
        "105426.023000",
        "105426.027000",
        "105426.030000",
        "105525.958000",
        "105525.962000",
        "105525.965000",
        "105525.968000",
        "105525.971000",
        "105525.974000",
        "105525.978000",
        "105525.981000",
        "105525.984000",
        "105525.987000",
        "105525.990000",
        "105525.993000",
        "105525.997000",
        "105526.001000",
        "105526.004000",
        "105526.007000",
        "105526.011000",
        "105526.014000",
        "105526.017000",
        "105526.020000",
        "105526.023000",
        "105526.026000",
        "105526.030000",
        "105625.958000",
        "105625.962000",
        "105625.965000",
        "105625.968000",
        "105625.971000",
        "105625.982000",
        "105625.985000",
        "105625.988000",
        "105625.992000",
        "105625.995000",
        "105625.998000",
        "105626.002000",
        "105626.005000",
        "105626.008000",
        "105626.011000",
        "105626.015000",
        "105626.018000",
        "105626.021000",
        "105626.024000",
        "105626.027000",
        "105626.030000",
        "105626.034000",
        "105626.037000",
        "105659.130000",
        "105659.134000",
        "105659.137000",
        "105659.140000",
        "105659.143000",
        "105659.146000",
        "105659.149000",
        "105659.152000",
        "105659.155000",
        "105659.159000",
        "105659.162000",
        "105659.165000",
        "105659.168000"
      ],
      "InstanceCreationTime": [
        "105325.962000",
        "105325.966000",
        "105325.969000",
        "105325.972000",
        "105325.975000",
        "105325.979000",
        "105325.982000",
        "105325.985000",
        "105325.988000",
        "105325.991000",
        "105325.994000",
        "105325.997000",
        "105326.002000",
        "105326.005000",
        "105326.008000",
        "105326.019000",
        "105326.030000",
        "105326.034000",
        "105326.037000",
        "105326.040000",
        "105326.043000",
        "105326.046000",
        "105326.049000",
        "105326.053000",
        "105326.056000",
        "105425.958000",
        "105425.962000",
        "105425.965000",
        "105425.968000",
        "105425.971000",
        "105425.975000",
        "105425.978000",
        "105425.981000",
        "105425.984000",
        "105425.987000",
        "105425.990000",
        "105425.994000",
        "105425.997000",
        "105426.001000",
        "105426.004000",
        "105426.007000",
        "105426.011000",
        "105426.014000",
        "105426.017000",
        "105426.020000",
        "105426.023000",
        "105426.027000",
        "105426.030000",
        "105525.958000",
        "105525.962000",
        "105525.965000",
        "105525.968000",
        "105525.971000",
        "105525.974000",
        "105525.978000",
        "105525.981000",
        "105525.984000",
        "105525.987000",
        "105525.990000",
        "105525.993000",
        "105525.997000",
        "105526.001000",
        "105526.004000",
        "105526.007000",
        "105526.011000",
        "105526.014000",
        "105526.017000",
        "105526.020000",
        "105526.023000",
        "105526.026000",
        "105526.030000",
        "105625.958000",
        "105625.962000",
        "105625.965000",
        "105625.968000",
        "105625.971000",
        "105625.982000",
        "105625.985000",
        "105625.988000",
        "105625.992000",
        "105625.995000",
        "105625.998000",
        "105626.002000",
        "105626.005000",
        "105626.008000",
        "105626.011000",
        "105626.015000",
        "105626.018000",
        "105626.021000",
        "105626.024000",
        "105626.027000",
        "105626.030000",
        "105626.034000",
        "105626.037000",
        "105659.130000",
        "105659.134000",
        "105659.137000",
        "105659.140000",
        "105659.143000",
        "105659.146000",
        "105659.149000",
        "105659.152000",
        "105659.155000",
        "105659.159000",
        "105659.162000",
        "105659.165000",
        "105659.168000"
      ],
      "InstanceNumber": [
        1,
        2,
        3,
        4,
        5,
        6,
        7,
        8,
        9,
        10,
        11,
        12,
        13,
        14,
        15,
        16,
        17,
        18,
        19,
        20,
        21,
        22,
        23,
        24,
        25,
        26,
        27,
        28,
        29,
        30,
        31,
        32,
        33,
        34,
        35,
        36,
        37,
        38,
        39,
        40,
        41,
        42,
        43,
        44,
        45,
        46,
        47,
        48,
        49,
        50,
        51,
        52,
        53,
        54,
        55,
        56,
        57,
        58,
        59,
        60,
        61,
        62,
        63,
        64,
        65,
        66,
        67,
        68,
        69,
        70,
        71,
        72,
        73,
        74,
        75,
        76,
        77,
        78,
        79,
        80,
        81,
        82,
        83,
        84,
        85,
        86,
        87,
        88,
        89,
        90,
        91,
        92,
        93,
        94,
        95,
        96,
        97,
        98,
        99,
        100,
        101,
        102,
        103,
        104,
        105,
        106,
        107
      ],
      "LargestImagePixelValue": [
        2315,
        2184,
        443,
        430,
        474,
        432,
        482,
        478,
        460,
        413,
        462,
        2303,
        481,
        491,
        457,
        430,
        418,
        441,
        507,
        449,
        418,
        472,
        1929,
        472,
        462,
        428,
        485,
        482,
        453,
        443,
        428,
        434,
        434,
        2098,
        441,
        432,
        407,
        447,
        419,
        436,
        441,
        443,
        438,
        466,
        2241,
        433,
        445,
        472,
        506,
        417,
        445,
        464,
        456,
        426,
        433,
        2447,
        479,
        440,
        458,
        457,
        512,
        429,
        431,
        451,
        445,
        438,
        1941,
        431,
        454,
        439,
        445,
        469,
        443,
        448,
        458,
        461,
        501,
        2154,
        459,
        446,
        449,
        405,
        457,
        454,
        430,
        468,
        449,
        2056,
        456,
        427,
        449,
        454,
        473,
        448,
        444,
        492,
        440,
        2383,
        429,
        479,
        435,
        489,
        425,
        452,
        410,
        443,
        456
      ],
      "SequenceName": [
        "*ep_b0",
        "*ep_b0",
        "*ep_b1000#2",
        "*ep_b1000#3",
        "*ep_b1000#4",
        "*ep_b1000#5",
        "*ep_b1000#6",
        "*ep_b1000#7",
        "*ep_b1000#8",
        "*ep_b1000#9",
        "*ep_b1000#10",
        "*ep_b0",
        "*ep_b1000#12",
        "*ep_b1000#13",
        "*ep_b1000#14",
        "*ep_b1000#15",
        "*ep_b1000#16",
        "*ep_b1000#17",
        "*ep_b1000#18",
        "*ep_b1000#19",
        "*ep_b1000#20",
        "*ep_b1000#21",
        "*ep_b0",
        "*ep_b1000#23",
        "*ep_b1000#24",
        "*ep_b1000#25",
        "*ep_b1000#26",
        "*ep_b1000#27",
        "*ep_b1000#28",
        "*ep_b1000#29",
        "*ep_b1000#30",
        "*ep_b1000#31",
        "*ep_b1000#32",
        "*ep_b0",
        "*ep_b1000#34",
        "*ep_b1000#35",
        "*ep_b1000#36",
        "*ep_b1000#37",
        "*ep_b1000#38",
        "*ep_b1000#39",
        "*ep_b1000#40",
        "*ep_b1000#41",
        "*ep_b1000#42",
        "*ep_b1000#43",
        "*ep_b0",
        "*ep_b1000#45",
        "*ep_b1000#46",
        "*ep_b1000#47",
        "*ep_b1000#48",
        "*ep_b1000#49",
        "*ep_b1000#50",
        "*ep_b1000#51",
        "*ep_b1000#52",
        "*ep_b1000#53",
        "*ep_b1000#54",
        "*ep_b0",
        "*ep_b1000#56",
        "*ep_b1000#57",
        "*ep_b1000#58",
        "*ep_b1000#59",
        "*ep_b1000#60",
        "*ep_b1000#61",
        "*ep_b1000#62",
        "*ep_b1000#63",
        "*ep_b1000#64",
        "*ep_b1000#65",
        "*ep_b0",
        "*ep_b1000#67",
        "*ep_b1000#68",
        "*ep_b1000#69",
        "*ep_b1000#70",
        "*ep_b1000#71",
        "*ep_b1000#72",
        "*ep_b1000#73",
        "*ep_b1000#74",
        "*ep_b1000#75",
        "*ep_b1000#76",
        "*ep_b0",
        "*ep_b1000#78",
        "*ep_b1000#79",
        "*ep_b1000#80",
        "*ep_b1000#81",
        "*ep_b1000#82",
        "*ep_b1000#83",
        "*ep_b1000#84",
        "*ep_b1000#85",
        "*ep_b1000#86",
        "*ep_b0",
        "*ep_b1000#88",
        "*ep_b1000#89",
        "*ep_b1000#90",
        "*ep_b1000#91",
        "*ep_b1000#92",
        "*ep_b1000#93",
        "*ep_b1000#94",
        "*ep_b1000#95",
        "*ep_b1000#96",
        "*ep_b0",
        "*ep_b1000#98",
        "*ep_b1000#99",
        "*ep_b1000#100",
        "*ep_b1000#101",
        "*ep_b1000#102",
        "*ep_b1000#103",
        "*ep_b1000#104",
        "*ep_b1000#105",
        "*ep_b1000#106"
      ],
      "WindowCenter": [
        239,
        235,
        102,
        105,
        103,
        104,
        104,
        102,
        105,
        100,
        105,
        235,
        104,
        103,
        102,
        103,
        104,
        101,
        104,
        105,
        102,
        104,
        229,
        103,
        105,
        102,
        103,
        104,
        102,
        104,
        102,
        103,
        105,
        231,
        103,
        104,
        101,
        105,
        102,
        104,
        103,
        103,
        103,
        105,
        233,
        102,
        103,
        105,
        104,
        104,
        102,
        103,
        103,
        103,
        104,
        241,
        104,
        101,
        103,
        102,
        105,
        104,
        103,
        103,
        103,
        103,
        231,
        103,
        105,
        103,
        102,
        103,
        102,
        104,
        103,
        104,
        103,
        234,
        104,
        103,
        104,
        102,
        104,
        102,
        104,
        104,
        102,
        232,
        103,
        103,
        105,
        104,
        103,
        101,
        105,
        104,
        103,
        236,
        103,
        103,
        102,
        104,
        103,
        104,
        102,
        104,
        102
      ],
      "WindowWidth": [
        561,
        553,
        258,
        266,
        260,
        263,
        262,
        259,
        264,
        255,
        264,
        549,
        264,
        260,
        258,
        261,
        263,
        257,
        262,
        265,
        258,
        263,
        542,
        260,
        266,
        259,
        260,
        264,
        258,
        263,
        258,
        260,
        266,
        545,
        261,
        262,
        256,
        264,
        258,
        262,
        261,
        260,
        260,
        264,
        548,
        258,
        260,
        266,
        262,
        262,
        259,
        260,
        260,
        261,
        262,
        562,
        264,
        256,
        261,
        258,
        266,
        262,
        261,
        260,
        260,
        260,
        547,
        260,
        266,
        261,
        259,
        260,
        258,
        262,
        260,
        262,
        260,
        551,
        262,
        260,
        262,
        259,
        263,
        259,
        263,
        262,
        259,
        547,
        261,
        261,
        264,
        262,
        262,
        257,
        266,
        262,
        261,
        551,
        261,
        262,
        259,
        262,
        261,
        262,
        259,
        262,
        258
      ]
    },
    "slices": {}
  },
  "CoilCombinationMethod": "Adaptive Combine",
  "NonlinearGradientCorrection": false,
  "PulseSequenceType": "Spin Echo EPI",
  "B0FieldSource": "pepolar_ses-2"
}
