{
  "AcquisitionMatrixPE": 120,
  "AcquisitionNumber": 1,
  "AcquisitionTime": "17:08:2.495000",
  "BandwidthPerPixelPhaseEncode": 13.889,
  "BaseResolution": 120,
  "BodyPartExamined": "BRAIN",
  "ConsistencyInfo": "N4_VE11C_LATEST_20160120",
  "ConversionSoftware": "dcm2niix",
  "ConversionSoftwareVersion": "v1.0.20170923 (OpenJPEG build) GCC6.3.0",
  "DerivedVendorReportedEchoSpacing": 0.000599995,
  "DeviceSerialNumber": "66112",
  "DwellTime": 2e-06,
  "EchoTime": 0.103,
  "EchoTrainLength": 120,
  "EffectiveEchoSpacing": 0.000599995,
  "FlipAngle": 90,
  "ImageType": [
    "ORIGINAL",
    "PRIMARY",
    "DIFFUSION",
    "NONE",
    "ND",
    "NORM",
    "MOSAIC"
],
  "InstitutionAddress": "Maynard_3_Hanover_NH_US_03755",
  "InstitutionName": "Dartmouth_College_-_PBS",
  "MagneticFieldStrength": 3,
  "Manufacturer": "Siemens",
  "ManufacturersModelName": "Prisma",
  "Modality": "MR",
  "MultibandAccelerationFactor": 4,
  "PartialFourier": 1,
  "PercentPhaseFOV": 100,
  "PhaseEncodingDirection": "j-",
  "PhaseEncodingSteps": 120,
  "PhaseResolution": 1,
  "ProcedureStepDescription": "Gobbini_Matteo_1038_hyperface",
  "ProtocolName": "dwi_acq-2.0mmXhardi96Xsms4X11b0",
  "PulseSequenceDetails": "%SiemensSeq%_ep2d_diff",
  "ReceiveCoilActiveElements": "HEA;HEP",
  "ReceiveCoilName": "Head_32",
  "ReconMatrixPE": 120,
  "RepetitionTime": 2.6,
  "ScanOptions": "FS",
  "ScanningSequence": "EP",
  "SequenceName": "_ep_b0",
  "SequenceVariant": "SK_SP",
  "SeriesDescription": "dwi_acq-2.0mmXhardi96Xsms4X11b0",
  "SliceTiming": [1.935, 0, 1.29, 0.1625, 1.4525, 0.3225, 1.6125, 0.485, 1.7725, 0.8075, 2.095, 0.9675, 2.2575, 1.13, 2.4175, 0.645, 1.935, 0, 1.29, 0.1625, 1.4525, 0.3225, 1.6125, 0.485, 1.7725, 0.8075, 2.095, 0.9675, 2.2575, 1.13, 2.4175, 0.645, 1.935, 0, 1.29, 0.1625, 1.4525, 0.3225, 1.6125, 0.485, 1.7725, 0.8075, 2.095, 0.9675, 2.2575, 1.13, 2.4175, 0.645, 1.935, 0, 1.29, 0.1625, 1.4525, 0.3225, 1.6125, 0.485, 1.7725, 0.8075, 2.095, 0.9675, 2.2575, 1.13, 2.4175, 0.645],
  "SoftwareVersions": "syngo_MR_E11",
  "StationName": "AWP66112",
  "TotalReadoutTime": 0.0713994,
  "dcmmeta_affine": [
    [-1.9970569610595703, 0.036253396421670914, 0.10222020000219345, 117.5362777709961],
    [0.05208103731274605, 1.9739649295806885, 0.3174116015434265, -106.28612518310547],
    [0.09513591974973679, -0.31960636377334595, 1.9720042943954468, -57.630165100097656],
    [0.0, 0.0, 0.0, 1.0]
],
  "dcmmeta_reorient_transform": [
    [0.0, -1.0, 0.0, 119.0],
    [1.0, 0.0, 0.0, 0.0],
    [0.0, 0.0, 1.0, 0.0],
    [0.0, 0.0, 0.0, 1.0]
],
  "dcmmeta_shape": [120, 120, 64, 107],
  "dcmmeta_slice_dim": 2,
  "dcmmeta_version": 0.6,
  "global": {
    "const": {
      "AccessionNumber": "A001173",
      "AcquisitionMatrix": [120, 0, 0, 120],
      "AngioFlag": "N",
      "BitsAllocated": 16,
      "BitsStored": 12,
      "BodyPartExamined": "BRAIN",
      "Columns": 960,
      "EchoNumbers": 1,
      "EchoTime": 103.0,
      "EchoTrainLength": 120,
      "FlipAngle": 90.0,
      "HighBit": 11,
      "ImageOrientationPatient": [0.99852850767904, -0.0260405195249, 0.04756795870282, 0.01812669767366, 0.98698245361245, 0.15980318861838],
      "ImagePositionPatient": [-975.84080173775, -935.80692052717, -269.85508713392],
      "ImageType": [
        "ORIGINAL",
        "PRIMARY",
        "DIFFUSION",
        "NONE",
        "ND",
        "NORM",
        "MOSAIC"
],
      "ImagedNucleus": "1H",
      "ImagingFrequency": 123.252314,
      "InPlanePhaseEncodingDirection": "COL",
      "MRAcquisitionType": "2D",
      "MagneticFieldStrength": 3.0,
      "Manufacturer": "SIEMENS",
      "ManufacturerModelName": "Prisma",
      "Modality": "MR",
      "NumberOfAverages": 1.0,
      "NumberOfPhaseEncodingSteps": 120,
      "PercentPhaseFieldOfView": 100.0,
      "PercentSampling": 100.0,
      "PerformedProcedureStepStartTime": "161024.008000",
      "PhotometricInterpretation": "MONOCHROME2",
      "PixelBandwidth": 2085.0,
      "PixelRepresentation": 0,
      "PixelSpacing": [2.0, 2.0],
      "PositionReferenceIndicator": "",
      "ProtocolName": "dwi_acq-2.0mmXhardi96Xsms4X11b0",
      "RepetitionTime": 2600.0,
      "Rows": 960,
      "SAR": 0.25751460840981,
      "SamplesPerPixel": 1,
      "ScanOptions": "FS",
      "ScanningSequence": "EP",
      "SequenceVariant": [
        "SK",
        "SP"
],
      "SeriesDescription": "dwi_acq-2.0mmXhardi96Xsms4X11b0",
      "SeriesNumber": 66,
      "SeriesTime": "170905.148000",
      "SliceLocation": -67.684399056725,
      "SliceThickness": 2.0,
      "SmallestImagePixelValue": 0,
      "SoftwareVersions": "syngo MR E11",
      "SpacingBetweenSlices": 2.0000000633902,
      "SpecificCharacterSet": "ISO_IR 100",
      "StudyID": "1",
      "StudyTime": "161023.913000",
      "TransmitCoilName": "Body",
      "VariableFlipAngleFlag": "N",
      "WindowCenterWidthExplanation": "Algo1",
      "dBdt": 0.0},
    "slices": {}
  },
  "time": {
    "samples": {
      "AcquisitionNumber": [1, 2, 3, 4, 5, 6, 7, 8, 9, 10, 11, 12, 13, 14, 15, 16, 17, 18, 19, 20, 21, 22, 23, 24, 25, 26, 27, 28, 29, 30, 31, 32, 33, 34, 35, 36, 37, 38, 39, 40, 41, 42, 43, 44, 45, 46, 47, 48, 49, 50, 51, 52, 53, 54, 55, 56, 57, 58, 59, 60, 61, 62, 63, 64, 65, 66, 67, 68, 69, 70, 71, 72, 73, 74, 75, 76, 77, 78, 79, 80, 81, 82, 83, 84, 85, 86, 87, 88, 89, 90, 91, 92, 93, 94, 95, 96, 97, 98, 99, 100, 101, 102, 103, 104, 105, 106, 107],
      "AcquisitionTime": ["170802.495000", "170805.095000", "170807.695000", "170810.295000", "170812.895000", "170815.495000", "170818.095000", "170820.695000", "170823.295000", "170825.895000", "170828.495000", "170831.095000", "170833.695000", "170836.295000", "170838.895000", "170841.495000", "170844.095000", "170846.695000", "170849.295000", "170851.895000", "170854.495000", "170857.095000", "170859.695000", "170902.295000", "170904.895000", "170907.495000", "170910.095000", "170912.695000", "170915.295000", "170917.895000", "170920.495000", "170923.095000", "170925.695000", "170928.295000", "170930.895000", "170933.495000", "170936.095000", "170938.695000", "170941.295000", "170943.895000", "170946.495000", "170949.095000", "170951.695000", "170954.295000", "170956.895000", "170959.495000", "171002.095000", "171004.695000", "171007.295000", "171009.895000", "171012.495000", "171015.095000", "171017.695000", "171020.295000", "171022.895000", "171025.495000", "171028.095000", "171030.695000", "171033.295000", "171035.895000", "171038.495000", "171041.095000", "171043.695000", "171046.295000", "171048.895000", "171051.495000", "171054.095000", "171056.695000", "171059.295000", "171101.895000", "171104.495000", "171107.095000", "171109.695000", "171112.295000", "171114.895000", "171117.495000", "171120.095000", "171122.695000", "171125.295000", "171127.895000", "171130.495000", "171133.095000", "171135.695000", "171138.295000", "171140.895000", "171143.495000", "171146.095000", "171148.695000", "171151.295000", "171153.895000", "171156.495000", "171159.095000", "171201.695000", "171204.295000", "171206.895000", "171209.495000", "171212.095000", "171214.695000", "171217.295000", "171219.895000", "171222.495000", "171225.095000", "171227.695000", "171230.295000", "171232.895000", "171235.495000", "171238.095000"],
      "ContentTime": ["170905.152000", "170905.163000", "170905.166000", "170905.170000", "170905.173000", "170905.176000", "170905.179000", "170905.182000", "170905.185000", "170905.188000", "170905.191000", "170905.196000", "170905.199000", "170905.202000", "170905.205000", "170905.209000", "170905.212000", "170905.215000", "170905.218000", "170905.221000", "170905.224000", "170905.227000", "170905.230000", "170905.242000", "171005.147000", "171005.164000", "171005.167000", "171005.170000", "171005.173000", "171005.184000", "171005.187000", "171005.190000", "171005.194000", "171005.196000", "171005.200000", "171005.203000", "171005.206000", "171005.209000", "171005.212000", "171005.215000", "171005.219000", "171005.222000", "171005.225000", "171005.228000", "171005.231000", "171005.234000", "171005.237000", "171105.147000", "171105.150000", "171105.154000", "171105.157000", "171105.160000", "171105.163000", "171105.166000", "171105.169000", "171105.172000", "171105.183000", "171105.187000", "171105.190000", "171105.193000", "171105.196000", "171105.199000", "171105.202000", "171105.206000", "171105.209000", "171105.212000", "171105.215000", "171105.218000", "171105.221000", "171105.224000", "171205.146000", "171205.149000", "171205.153000", "171205.156000", "171205.159000", "171205.162000", "171205.165000", "171205.168000", "171205.172000", "171205.175000", "171205.178000", "171205.181000", "171205.184000", "171205.187000", "171205.191000", "171205.205000", "171205.208000", "171205.211000", "171205.214000", "171205.217000", "171205.220000", "171205.223000", "171205.227000", "171225.147000", "171225.150000", "171225.154000", "171225.157000", "171225.160000", "171225.163000", "171225.166000", "171225.169000", "171242.424000", "171242.428000", "171242.431000", "171242.434000", "171242.437000", "171242.440000"],
      "InstanceCreationTime": ["170905.152000", "170905.163000", "170905.166000", "170905.170000", "170905.173000", "170905.176000", "170905.179000", "170905.182000", "170905.185000", "170905.188000", "170905.191000", "170905.196000", "170905.199000", "170905.202000", "170905.205000", "170905.209000", "170905.212000", "170905.215000", "170905.218000", "170905.221000", "170905.224000", "170905.227000", "170905.230000", "170905.242000", "171005.147000", "171005.164000", "171005.167000", "171005.170000", "171005.173000", "171005.184000", "171005.187000", "171005.190000", "171005.194000", "171005.196000", "171005.200000", "171005.203000", "171005.206000", "171005.209000", "171005.212000", "171005.215000", "171005.219000", "171005.222000", "171005.225000", "171005.228000", "171005.231000", "171005.234000", "171005.237000", "171105.147000", "171105.150000", "171105.154000", "171105.157000", "171105.160000", "171105.163000", "171105.166000", "171105.169000", "171105.172000", "171105.183000", "171105.187000", "171105.190000", "171105.193000", "171105.196000", "171105.199000", "171105.202000", "171105.206000", "171105.209000", "171105.212000", "171105.215000", "171105.218000", "171105.221000", "171105.224000", "171205.146000", "171205.149000", "171205.153000", "171205.156000", "171205.159000", "171205.162000", "171205.165000", "171205.168000", "171205.172000", "171205.175000", "171205.178000", "171205.181000", "171205.184000", "171205.187000", "171205.191000", "171205.205000", "171205.208000", "171205.211000", "171205.214000", "171205.217000", "171205.220000", "171205.223000", "171205.227000", "171225.147000", "171225.150000", "171225.154000", "171225.157000", "171225.160000", "171225.163000", "171225.166000", "171225.169000", "171242.424000", "171242.428000", "171242.431000", "171242.434000", "171242.437000", "171242.440000"],
      "InstanceNumber": [1, 2, 3, 4, 5, 6, 7, 8, 9, 10, 11, 12, 13, 14, 15, 16, 17, 18, 19, 20, 21, 22, 23, 24, 25, 26, 27, 28, 29, 30, 31, 32, 33, 34, 35, 36, 37, 38, 39, 40, 41, 42, 43, 44, 45, 46, 47, 48, 49, 50, 51, 52, 53, 54, 55, 56, 57, 58, 59, 60, 61, 62, 63, 64, 65, 66, 67, 68, 69, 70, 71, 72, 73, 74, 75, 76, 77, 78, 79, 80, 81, 82, 83, 84, 85, 86, 87, 88, 89, 90, 91, 92, 93, 94, 95, 96, 97, 98, 99, 100, 101, 102, 103, 104, 105, 106, 107],
      "LargestImagePixelValue": [3301, 3079, 621, 508, 656, 594, 543, 514, 616, 518, 614, 2767, 585, 549, 747, 662, 625, 572, 511, 591, 544, 618, 3261, 521, 616, 650, 534, 633, 525, 472, 645, 566, 507, 2505, 576, 590, 543, 646, 718, 643, 472, 583, 603, 652, 2873, 564, 644, 458, 602, 508, 528, 678, 615, 530, 513, 3239, 575, 473, 495, 609, 604, 698, 610, 687, 632, 560, 2617, 725, 607, 588, 405, 610, 504, 658, 538, 529, 489, 2466, 569, 448, 576, 677, 617, 649, 636, 550, 642, 3084, 502, 537, 689, 404, 514, 519, 722, 622, 557, 2604, 465, 637, 591, 437, 634, 629, 485, 522, 559],
      "SequenceName": [
        "*ep_b0",
        "*ep_b0",
        "*ep_b1000#2",
        "*ep_b1000#3",
        "*ep_b1000#4",
        "*ep_b1000#5",
        "*ep_b1000#6",
        "*ep_b1000#7",
        "*ep_b1000#8",
        "*ep_b1000#9",
        "*ep_b1000#10",
        "*ep_b0",
        "*ep_b1000#12",
        "*ep_b1000#13",
        "*ep_b1000#14",
        "*ep_b1000#15",
        "*ep_b1000#16",
        "*ep_b1000#17",
        "*ep_b1000#18",
        "*ep_b1000#19",
        "*ep_b1000#20",
        "*ep_b1000#21",
        "*ep_b0",
        "*ep_b1000#23",
        "*ep_b1000#24",
        "*ep_b1000#25",
        "*ep_b1000#26",
        "*ep_b1000#27",
        "*ep_b1000#28",
        "*ep_b1000#29",
        "*ep_b1000#30",
        "*ep_b1000#31",
        "*ep_b1000#32",
        "*ep_b0",
        "*ep_b1000#34",
        "*ep_b1000#35",
        "*ep_b1000#36",
        "*ep_b1000#37",
        "*ep_b1000#38",
        "*ep_b1000#39",
        "*ep_b1000#40",
        "*ep_b1000#41",
        "*ep_b1000#42",
        "*ep_b1000#43",
        "*ep_b0",
        "*ep_b1000#45",
        "*ep_b1000#46",
        "*ep_b1000#47",
        "*ep_b1000#48",
        "*ep_b1000#49",
        "*ep_b1000#50",
        "*ep_b1000#51",
        "*ep_b1000#52",
        "*ep_b1000#53",
        "*ep_b1000#54",
        "*ep_b0",
        "*ep_b1000#56",
        "*ep_b1000#57",
        "*ep_b1000#58",
        "*ep_b1000#59",
        "*ep_b1000#60",
        "*ep_b1000#61",
        "*ep_b1000#62",
        "*ep_b1000#63",
        "*ep_b1000#64",
        "*ep_b1000#65",
        "*ep_b0",
        "*ep_b1000#67",
        "*ep_b1000#68",
        "*ep_b1000#69",
        "*ep_b1000#70",
        "*ep_b1000#71",
        "*ep_b1000#72",
        "*ep_b1000#73",
        "*ep_b1000#74",
        "*ep_b1000#75",
        "*ep_b1000#76",
        "*ep_b0",
        "*ep_b1000#78",
        "*ep_b1000#79",
        "*ep_b1000#80",
        "*ep_b1000#81",
        "*ep_b1000#82",
        "*ep_b1000#83",
        "*ep_b1000#84",
        "*ep_b1000#85",
        "*ep_b1000#86",
        "*ep_b0",
        "*ep_b1000#88",
        "*ep_b1000#89",
        "*ep_b1000#90",
        "*ep_b1000#91",
        "*ep_b1000#92",
        "*ep_b1000#93",
        "*ep_b1000#94",
        "*ep_b1000#95",
        "*ep_b1000#96",
        "*ep_b0",
        "*ep_b1000#98",
        "*ep_b1000#99",
        "*ep_b1000#100",
        "*ep_b1000#101",
        "*ep_b1000#102",
        "*ep_b1000#103",
        "*ep_b1000#104",
        "*ep_b1000#105",
        "*ep_b1000#106"
],
      "WindowCenter": [303.0, 291.0, 103.0, 105.0, 104.0, 105.0, 103.0, 103.0, 106.0, 102.0, 105.0, 272.0, 105.0, 103.0, 104.0, 105.0, 105.0, 102.0, 105.0, 107.0, 103.0, 104.0, 297.0, 104.0, 107.0, 104.0, 104.0, 106.0, 103.0, 104.0, 103.0, 104.0, 106.0, 260.0, 104.0, 104.0, 102.0, 106.0, 104.0, 105.0, 104.0, 104.0, 103.0, 106.0, 278.0, 103.0, 104.0, 105.0, 104.0, 103.0, 103.0, 104.0, 104.0, 104.0, 103.0, 296.0, 106.0, 102.0, 104.0, 103.0, 106.0, 105.0, 103.0, 104.0, 104.0, 104.0, 267.0, 104.0, 105.0, 105.0, 102.0, 104.0, 103.0, 105.0, 103.0, 104.0, 103.0, 261.0, 105.0, 103.0, 105.0, 104.0, 106.0, 103.0, 106.0, 105.0, 103.0, 287.0, 104.0, 104.0, 106.0, 104.0, 104.0, 102.0, 107.0, 104.0, 104.0, 264.0, 103.0, 104.0, 103.0, 104.0, 105.0, 104.0, 103.0, 104.0, 103.0],
      "WindowWidth": [656.0, 638.0, 261.0, 266.0, 263.0, 265.0, 261.0, 260.0, 267.0, 257.0, 265.0, 614.0, 265.0, 260.0, 262.0, 264.0, 265.0, 259.0, 264.0, 269.0, 259.0, 263.0, 645.0, 262.0, 269.0, 262.0, 262.0, 266.0, 260.0, 263.0, 261.0, 263.0, 267.0, 596.0, 263.0, 263.0, 258.0, 266.0, 263.0, 265.0, 262.0, 262.0, 261.0, 267.0, 621.0, 259.0, 263.0, 266.0, 263.0, 261.0, 261.0, 263.0, 263.0, 262.0, 261.0, 645.0, 267.0, 257.0, 262.0, 261.0, 267.0, 265.0, 261.0, 263.0, 263.0, 263.0, 607.0, 263.0, 265.0, 265.0, 259.0, 261.0, 261.0, 265.0, 261.0, 264.0, 261.0, 598.0, 265.0, 260.0, 265.0, 262.0, 266.0, 261.0, 267.0, 265.0, 261.0, 632.0, 262.0, 264.0, 266.0, 262.0, 264.0, 258.0, 268.0, 263.0, 264.0, 601.0, 261.0, 263.0, 261.0, 261.0, 264.0, 264.0, 260.0, 263.0, 260.0]
    },
    "slices": {}
  }
}