{
  "AcquisitionMatrixPE": 96,
  "AcquisitionNumber": 1,
  "BandwidthPerPixelPhaseEncode": 18.939,
  "BaseResolution": 96,
  "BodyPartExamined": "BRAIN",
  "ConsistencyInfo": "N4_VE11C_LATEST_20160120",
  "ConversionSoftware": "dcm2niix",
  "ConversionSoftwareVersion": "v1.0.20171215 (OpenJPEG build) GCC6.3.0",
  "DerivedVendorReportedEchoSpacing": 0.000550011,
  "DeviceSerialNumber": "66112",
  "DwellTime": 2.2e-06,
  "EchoTime": 0.033,
  "EchoTrainLength": 96,
  "EffectiveEchoSpacing": 0.000550011,
  "FlipAngle": 59,
  "ImageOrientationPatientDICOM": [
    0.998778,
    0.0474279,
    0.0139095,
    -0.0474506,
    0.998873,
    0.00130639
  ],
  "ImageType": [
    "ORIGINAL",
    "PRIMARY",
    "FMRI",
    "NONE",
    "ND",
    "NORM",
    "MOSAIC"
  ],
  "InPlanePhaseEncodingDirectionDICOM": "COL",
  "InstitutionAddress": "Maynard_3_Hanover_NH_US_03755",
  "InstitutionName": "Dartmouth_College_-_PBS",
  "InstitutionalDepartmentName": "Department",
  "MRAcquisitionType": "2D",
  "MagneticFieldStrength": 3,
  "Manufacturer": "Siemens",
  "ManufacturersModelName": "Prisma",
  "Modality": "MR",
  "MultibandAccelerationFactor": 4,
  "PartialFourier": 1,
  "PatientPosition": "HFS",
  "PercentPhaseFOV": 100,
  "PhaseEncodingDirection": "j-",
  "PhaseEncodingSteps": 96,
  "PhaseResolution": 1,
  "PixelBandwidth": 2365,
  "ProcedureStepDescription": "Gobbini_Matteo_1038_hyperface",
  "ProtocolName": "func_run-08_task-visualmemory",
  "PulseSequenceDetails": "%SiemensSeq%_ep2d_bold",
  "ReceiveCoilActiveElements": "HEA;HEP",
  "ReceiveCoilName": "Head_32",
  "ReconMatrixPE": 96,
  "RepetitionTime": 1,
  "SAR": 0.0440479,
  "ScanOptions": "FS",
  "ScanningSequence": "EP",
  "SequenceName": "_epfid2d1_96",
  "SequenceVariant": "SK",
  "SeriesDescription": "func_run-08_task-visualmemory",
  "SeriesNumber": 57,
  "ShimSetting": [
    4140,
    -7705,
    -7315,
    591,
    -34,
    -21,
    3,
    59
  ],
  "SliceThickness": 2.5,
  "SliceTiming": [
    0.735,
    0,
    0.49,
    0.0825,
    0.5725,
    0.165,
    0.655,
    0.3275,
    0.8175,
    0.41,
    0.9,
    0.245,
    0.735,
    0,
    0.49,
    0.0825,
    0.5725,
    0.165,
    0.655,
    0.3275,
    0.8175,
    0.41,
    0.9,
    0.245,
    0.735,
    0,
    0.49,
    0.0825,
    0.5725,
    0.165,
    0.655,
    0.3275,
    0.8175,
    0.41,
    0.9,
    0.245,
    0.735,
    0,
    0.49,
    0.0825,
    0.5725,
    0.165,
    0.655,
    0.3275,
    0.8175,
    0.41,
    0.9,
    0.245
  ],
  "SoftwareVersions": "syngo_MR_E11",
  "SpacingBetweenSlices": 2.5,
  "StationName": "AWP66112",
  "TotalReadoutTime": 0.0522511,
  "TxRefAmp": 222.057,
  "time": {
    "samples": {
      "AcquisitionNumber": [
        1,
        2,
        3,
        4,
        5,
        6,
        7,
        8,
        9,
        10,
        11,
        12,
        13,
        14,
        15,
        16,
        17,
        18,
        19,
        20,
        21,
        22,
        23,
        24,
        25,
        26,
        27,
        28,
        29,
        30,
        31,
        32,
        33,
        34,
        35,
        36,
        37,
        38,
        39,
        40,
        41,
        42,
        43,
        44,
        45,
        46,
        47,
        48,
        49,
        50,
        51,
        52,
        53,
        54,
        55,
        56,
        57,
        58,
        59,
        60,
        61,
        62,
        63,
        64,
        65,
        66,
        67,
        68,
        69,
        70,
        71,
        72,
        73,
        74,
        75,
        76,
        77,
        78,
        79,
        80,
        81,
        82,
        83,
        84,
        85,
        86,
        87,
        88,
        89,
        90,
        91,
        92,
        93,
        94,
        95,
        96,
        97,
        98,
        99,
        100,
        101,
        102,
        103,
        104,
        105,
        106,
        107,
        108,
        109,
        110,
        111,
        112,
        113,
        114,
        115,
        116,
        117,
        118,
        119,
        120,
        121,
        122,
        123,
        124,
        125,
        126,
        127,
        128,
        129,
        130,
        131,
        132,
        133,
        134,
        135,
        136,
        137,
        138,
        139,
        140,
        141,
        142,
        143,
        144,
        145,
        146,
        147,
        148,
        149,
        150,
        151,
        152,
        153,
        154,
        155,
        156,
        157,
        158,
        159,
        160,
        161,
        162,
        163,
        164,
        165,
        166,
        167,
        168,
        169,
        170,
        171,
        172,
        173,
        174,
        175,
        176,
        177,
        178,
        179,
        180,
        181,
        182,
        183,
        184,
        185,
        186,
        187,
        188,
        189,
        190,
        191,
        192,
        193,
        194,
        195,
        196,
        197,
        198,
        199,
        200,
        201,
        202,
        203,
        204,
        205,
        206,
        207,
        208,
        209,
        210,
        211,
        212,
        213,
        214,
        215,
        216,
        217,
        218,
        219,
        220,
        221,
        222,
        223,
        224,
        225,
        226,
        227,
        228,
        229,
        230,
        231,
        232,
        233,
        234,
        235,
        236,
        237,
        238,
        239,
        240,
        241,
        242,
        243,
        244,
        245,
        246,
        247,
        248,
        249,
        250,
        251,
        252,
        253,
        254,
        255,
        256,
        257,
        258,
        259,
        260,
        261,
        262,
        263,
        264,
        265,
        266,
        267,
        268,
        269,
        270,
        271,
        272,
        273,
        274,
        275,
        276,
        277,
        278,
        279,
        280,
        281,
        282,
        283,
        284,
        285,
        286,
        287,
        288
      ],
      "AcquisitionTime": [
        "175444.520000",
        "175445.520000",
        "175446.520000",
        "175447.520000",
        "175448.520000",
        "175449.520000",
        "175450.520000",
        "175451.520000",
        "175452.520000",
        "175453.520000",
        "175454.520000",
        "175455.520000",
        "175456.520000",
        "175457.520000",
        "175458.520000",
        "175459.520000",
        "175500.520000",
        "175501.520000",
        "175502.520000",
        "175503.520000",
        "175504.520000",
        "175505.520000",
        "175506.520000",
        "175507.520000",
        "175508.520000",
        "175509.520000",
        "175510.520000",
        "175511.520000",
        "175512.520000",
        "175513.520000",
        "175514.520000",
        "175515.520000",
        "175516.520000",
        "175517.520000",
        "175518.520000",
        "175519.520000",
        "175520.520000",
        "175521.520000",
        "175522.520000",
        "175523.520000",
        "175524.520000",
        "175525.520000",
        "175526.520000",
        "175527.520000",
        "175528.520000",
        "175529.520000",
        "175530.520000",
        "175531.520000",
        "175532.520000",
        "175533.520000",
        "175534.520000",
        "175535.520000",
        "175536.520000",
        "175537.520000",
        "175538.520000",
        "175539.520000",
        "175540.520000",
        "175541.520000",
        "175542.520000",
        "175543.520000",
        "175544.520000",
        "175545.520000",
        "175546.520000",
        "175547.520000",
        "175548.520000",
        "175549.520000",
        "175550.520000",
        "175551.520000",
        "175552.520000",
        "175553.520000",
        "175554.520000",
        "175555.520000",
        "175556.520000",
        "175557.520000",
        "175558.520000",
        "175559.520000",
        "175600.520000",
        "175601.520000",
        "175602.520000",
        "175603.520000",
        "175604.520000",
        "175605.520000",
        "175606.520000",
        "175607.520000",
        "175608.520000",
        "175609.520000",
        "175610.520000",
        "175611.520000",
        "175612.520000",
        "175613.520000",
        "175614.520000",
        "175615.520000",
        "175616.520000",
        "175617.520000",
        "175618.520000",
        "175619.520000",
        "175620.520000",
        "175621.520000",
        "175622.520000",
        "175623.520000",
        "175624.520000",
        "175625.520000",
        "175626.520000",
        "175627.520000",
        "175628.520000",
        "175629.520000",
        "175630.520000",
        "175631.520000",
        "175632.520000",
        "175633.520000",
        "175634.520000",
        "175635.520000",
        "175636.520000",
        "175637.520000",
        "175638.520000",
        "175639.520000",
        "175640.520000",
        "175641.520000",
        "175642.520000",
        "175643.520000",
        "175644.520000",
        "175645.520000",
        "175646.520000",
        "175647.520000",
        "175648.520000",
        "175649.520000",
        "175650.520000",
        "175651.520000",
        "175652.520000",
        "175653.520000",
        "175654.520000",
        "175655.520000",
        "175656.520000",
        "175657.520000",
        "175658.520000",
        "175659.520000",
        "175700.520000",
        "175701.520000",
        "175702.520000",
        "175703.520000",
        "175704.520000",
        "175705.520000",
        "175706.520000",
        "175707.520000",
        "175708.520000",
        "175709.520000",
        "175710.520000",
        "175711.520000",
        "175712.520000",
        "175713.520000",
        "175714.520000",
        "175715.520000",
        "175716.520000",
        "175717.520000",
        "175718.520000",
        "175719.520000",
        "175720.520000",
        "175721.520000",
        "175722.520000",
        "175723.520000",
        "175724.520000",
        "175725.520000",
        "175726.520000",
        "175727.520000",
        "175728.520000",
        "175729.520000",
        "175730.520000",
        "175731.520000",
        "175732.520000",
        "175733.520000",
        "175734.520000",
        "175735.520000",
        "175736.520000",
        "175737.520000",
        "175738.520000",
        "175739.520000",
        "175740.520000",
        "175741.520000",
        "175742.520000",
        "175743.520000",
        "175744.520000",
        "175745.520000",
        "175746.520000",
        "175747.520000",
        "175748.520000",
        "175749.520000",
        "175750.520000",
        "175751.520000",
        "175752.520000",
        "175753.520000",
        "175754.520000",
        "175755.520000",
        "175756.520000",
        "175757.520000",
        "175758.520000",
        "175759.520000",
        "175800.520000",
        "175801.520000",
        "175802.520000",
        "175803.520000",
        "175804.520000",
        "175805.520000",
        "175806.520000",
        "175807.520000",
        "175808.520000",
        "175809.520000",
        "175810.520000",
        "175811.520000",
        "175812.520000",
        "175813.520000",
        "175814.520000",
        "175815.520000",
        "175816.520000",
        "175817.520000",
        "175818.520000",
        "175819.520000",
        "175820.520000",
        "175821.520000",
        "175822.520000",
        "175823.520000",
        "175824.520000",
        "175825.520000",
        "175826.520000",
        "175827.520000",
        "175828.520000",
        "175829.520000",
        "175830.520000",
        "175831.520000",
        "175832.520000",
        "175833.520000",
        "175834.520000",
        "175835.520000",
        "175836.520000",
        "175837.520000",
        "175838.520000",
        "175839.520000",
        "175840.520000",
        "175841.520000",
        "175842.520000",
        "175843.520000",
        "175844.520000",
        "175845.520000",
        "175846.520000",
        "175847.520000",
        "175848.520000",
        "175849.520000",
        "175850.520000",
        "175851.520000",
        "175852.520000",
        "175853.520000",
        "175854.520000",
        "175855.520000",
        "175856.520000",
        "175857.520000",
        "175858.520000",
        "175859.520000",
        "175900.520000",
        "175901.520000",
        "175902.520000",
        "175903.520000",
        "175904.520000",
        "175905.520000",
        "175906.520000",
        "175907.520000",
        "175908.520000",
        "175909.520000",
        "175910.520000",
        "175911.520000",
        "175912.520000",
        "175913.520000",
        "175914.520000",
        "175915.520000",
        "175916.520000",
        "175917.520000",
        "175918.520000",
        "175919.520000",
        "175920.520000",
        "175921.520000",
        "175922.520000",
        "175923.520000",
        "175924.520000",
        "175925.520000",
        "175926.520000",
        "175927.520000",
        "175928.520000",
        "175929.520000",
        "175930.520000",
        "175931.520000"
      ],
      "ContentTime": [
        "175445.430000",
        "175446.258000",
        "175447.265000",
        "175448.267000",
        "175449.269000",
        "175450.254000",
        "175451.239000",
        "175452.270000",
        "175453.261000",
        "175454.264000",
        "175455.287000",
        "175456.260000",
        "175457.268000",
        "175458.278000",
        "175459.277000",
        "175500.240000",
        "175501.257000",
        "175502.268000",
        "175503.266000",
        "175504.242000",
        "175505.254000",
        "175506.287000",
        "175507.257000",
        "175508.261000",
        "175509.339000",
        "175510.253000",
        "175511.262000",
        "175512.262000",
        "175513.245000",
        "175514.286000",
        "175515.261000",
        "175516.264000",
        "175517.264000",
        "175518.252000",
        "175519.327000",
        "175520.264000",
        "175521.298000",
        "175522.247000",
        "175523.290000",
        "175524.269000",
        "175525.302000",
        "175526.241000",
        "175527.240000",
        "175528.266000",
        "175529.230000",
        "175530.319000",
        "175531.258000",
        "175532.261000",
        "175533.280000",
        "175534.256000",
        "175535.259000",
        "175536.266000",
        "175537.246000",
        "175538.265000",
        "175539.249000",
        "175540.247000",
        "175541.258000",
        "175542.283000",
        "175543.261000",
        "175544.240000",
        "175545.234000",
        "175546.282000",
        "175547.244000",
        "175548.231000",
        "175549.244000",
        "175550.248000",
        "175551.275000",
        "175552.265000",
        "175553.266000",
        "175554.274000",
        "175555.265000",
        "175556.266000",
        "175557.266000",
        "175558.225000",
        "175559.240000",
        "175600.262000",
        "175601.335000",
        "175602.259000",
        "175603.247000",
        "175604.249000",
        "175605.311000",
        "175606.246000",
        "175607.248000",
        "175608.265000",
        "175609.237000",
        "175610.272000",
        "175611.275000",
        "175612.243000",
        "175613.294000",
        "175614.245000",
        "175615.257000",
        "175616.238000",
        "175617.276000",
        "175618.260000",
        "175619.232000",
        "175620.266000",
        "175621.238000",
        "175622.269000",
        "175623.258000",
        "175624.261000",
        "175625.268000",
        "175626.293000",
        "175627.270000",
        "175628.255000",
        "175629.251000",
        "175630.321000",
        "175631.253000",
        "175632.259000",
        "175633.256000",
        "175634.290000",
        "175635.281000",
        "175636.258000",
        "175637.265000",
        "175638.272000",
        "175639.263000",
        "175640.275000",
        "175641.259000",
        "175642.277000",
        "175643.267000",
        "175644.253000",
        "175645.268000",
        "175646.270000",
        "175647.278000",
        "175648.277000",
        "175649.251000",
        "175650.275000",
        "175651.304000",
        "175652.255000",
        "175653.260000",
        "175654.269000",
        "175655.229000",
        "175656.298000",
        "175657.256000",
        "175658.278000",
        "175659.253000",
        "175700.279000",
        "175701.294000",
        "175702.272000",
        "175703.263000",
        "175704.296000",
        "175705.317000",
        "175706.297000",
        "175707.258000",
        "175708.276000",
        "175709.252000",
        "175710.263000",
        "175711.260000",
        "175712.313000",
        "175713.249000",
        "175714.257000",
        "175715.243000",
        "175716.269000",
        "175717.256000",
        "175718.250000",
        "175719.245000",
        "175720.262000",
        "175721.240000",
        "175722.291000",
        "175723.245000",
        "175724.270000",
        "175725.252000",
        "175726.258000",
        "175727.264000",
        "175728.251000",
        "175729.268000",
        "175730.253000",
        "175731.245000",
        "175732.261000",
        "175733.276000",
        "175734.225000",
        "175735.281000",
        "175736.308000",
        "175737.261000",
        "175738.256000",
        "175739.310000",
        "175740.269000",
        "175741.262000",
        "175742.266000",
        "175743.255000",
        "175744.265000",
        "175745.250000",
        "175746.259000",
        "175747.239000",
        "175748.253000",
        "175749.244000",
        "175750.267000",
        "175751.248000",
        "175752.272000",
        "175753.281000",
        "175754.272000",
        "175755.275000",
        "175756.247000",
        "175757.255000",
        "175758.264000",
        "175759.238000",
        "175800.244000",
        "175801.266000",
        "175802.243000",
        "175803.275000",
        "175804.260000",
        "175805.253000",
        "175806.233000",
        "175807.237000",
        "175808.253000",
        "175809.281000",
        "175810.237000",
        "175811.257000",
        "175812.254000",
        "175813.246000",
        "175814.289000",
        "175815.251000",
        "175816.275000",
        "175817.256000",
        "175818.259000",
        "175819.255000",
        "175820.323000",
        "175821.282000",
        "175822.268000",
        "175823.239000",
        "175824.252000",
        "175825.275000",
        "175826.247000",
        "175827.300000",
        "175828.278000",
        "175829.281000",
        "175830.260000",
        "175831.260000",
        "175832.236000",
        "175833.258000",
        "175834.259000",
        "175835.249000",
        "175836.240000",
        "175837.283000",
        "175838.251000",
        "175839.264000",
        "175840.259000",
        "175841.251000",
        "175842.258000",
        "175843.269000",
        "175844.255000",
        "175845.259000",
        "175846.271000",
        "175847.275000",
        "175848.267000",
        "175849.380000",
        "175850.250000",
        "175851.245000",
        "175852.227000",
        "175853.264000",
        "175854.278000",
        "175855.247000",
        "175856.291000",
        "175857.273000",
        "175858.306000",
        "175859.270000",
        "175900.282000",
        "175901.254000",
        "175902.263000",
        "175903.260000",
        "175904.266000",
        "175905.271000",
        "175906.269000",
        "175907.268000",
        "175908.262000",
        "175909.244000",
        "175910.246000",
        "175911.252000",
        "175912.253000",
        "175913.267000",
        "175914.253000",
        "175915.270000",
        "175916.271000",
        "175917.242000",
        "175918.256000",
        "175919.278000",
        "175920.244000",
        "175921.248000",
        "175922.251000",
        "175923.266000",
        "175924.264000",
        "175925.265000",
        "175926.285000",
        "175927.246000",
        "175928.261000",
        "175929.240000",
        "175930.284000",
        "175931.273000",
        "175932.313000"
      ],
      "InstanceCreationTime": [
        "175445.430000",
        "175446.258000",
        "175447.265000",
        "175448.267000",
        "175449.269000",
        "175450.254000",
        "175451.239000",
        "175452.270000",
        "175453.261000",
        "175454.264000",
        "175455.287000",
        "175456.260000",
        "175457.268000",
        "175458.278000",
        "175459.277000",
        "175500.240000",
        "175501.257000",
        "175502.268000",
        "175503.266000",
        "175504.242000",
        "175505.254000",
        "175506.287000",
        "175507.257000",
        "175508.261000",
        "175509.339000",
        "175510.253000",
        "175511.262000",
        "175512.262000",
        "175513.245000",
        "175514.286000",
        "175515.261000",
        "175516.264000",
        "175517.264000",
        "175518.252000",
        "175519.327000",
        "175520.264000",
        "175521.298000",
        "175522.247000",
        "175523.290000",
        "175524.269000",
        "175525.302000",
        "175526.241000",
        "175527.240000",
        "175528.266000",
        "175529.230000",
        "175530.319000",
        "175531.258000",
        "175532.261000",
        "175533.280000",
        "175534.256000",
        "175535.259000",
        "175536.266000",
        "175537.246000",
        "175538.265000",
        "175539.249000",
        "175540.247000",
        "175541.258000",
        "175542.283000",
        "175543.261000",
        "175544.240000",
        "175545.234000",
        "175546.282000",
        "175547.244000",
        "175548.231000",
        "175549.244000",
        "175550.248000",
        "175551.275000",
        "175552.265000",
        "175553.266000",
        "175554.274000",
        "175555.265000",
        "175556.266000",
        "175557.266000",
        "175558.225000",
        "175559.240000",
        "175600.262000",
        "175601.335000",
        "175602.259000",
        "175603.247000",
        "175604.249000",
        "175605.311000",
        "175606.246000",
        "175607.248000",
        "175608.265000",
        "175609.237000",
        "175610.272000",
        "175611.275000",
        "175612.243000",
        "175613.294000",
        "175614.245000",
        "175615.257000",
        "175616.238000",
        "175617.276000",
        "175618.260000",
        "175619.232000",
        "175620.266000",
        "175621.238000",
        "175622.269000",
        "175623.258000",
        "175624.261000",
        "175625.268000",
        "175626.293000",
        "175627.270000",
        "175628.255000",
        "175629.251000",
        "175630.321000",
        "175631.253000",
        "175632.259000",
        "175633.256000",
        "175634.290000",
        "175635.281000",
        "175636.258000",
        "175637.265000",
        "175638.272000",
        "175639.263000",
        "175640.275000",
        "175641.259000",
        "175642.277000",
        "175643.267000",
        "175644.253000",
        "175645.268000",
        "175646.270000",
        "175647.278000",
        "175648.277000",
        "175649.251000",
        "175650.275000",
        "175651.304000",
        "175652.255000",
        "175653.260000",
        "175654.269000",
        "175655.229000",
        "175656.298000",
        "175657.256000",
        "175658.278000",
        "175659.253000",
        "175700.279000",
        "175701.294000",
        "175702.272000",
        "175703.263000",
        "175704.296000",
        "175705.317000",
        "175706.297000",
        "175707.258000",
        "175708.276000",
        "175709.252000",
        "175710.263000",
        "175711.260000",
        "175712.313000",
        "175713.249000",
        "175714.257000",
        "175715.243000",
        "175716.269000",
        "175717.256000",
        "175718.250000",
        "175719.245000",
        "175720.262000",
        "175721.240000",
        "175722.291000",
        "175723.245000",
        "175724.270000",
        "175725.252000",
        "175726.258000",
        "175727.264000",
        "175728.251000",
        "175729.268000",
        "175730.253000",
        "175731.245000",
        "175732.261000",
        "175733.276000",
        "175734.225000",
        "175735.281000",
        "175736.308000",
        "175737.261000",
        "175738.256000",
        "175739.310000",
        "175740.269000",
        "175741.262000",
        "175742.266000",
        "175743.255000",
        "175744.265000",
        "175745.250000",
        "175746.259000",
        "175747.239000",
        "175748.253000",
        "175749.244000",
        "175750.267000",
        "175751.248000",
        "175752.272000",
        "175753.281000",
        "175754.272000",
        "175755.275000",
        "175756.247000",
        "175757.255000",
        "175758.264000",
        "175759.238000",
        "175800.244000",
        "175801.266000",
        "175802.243000",
        "175803.275000",
        "175804.260000",
        "175805.253000",
        "175806.233000",
        "175807.237000",
        "175808.253000",
        "175809.281000",
        "175810.237000",
        "175811.257000",
        "175812.254000",
        "175813.246000",
        "175814.289000",
        "175815.251000",
        "175816.275000",
        "175817.256000",
        "175818.259000",
        "175819.255000",
        "175820.323000",
        "175821.282000",
        "175822.268000",
        "175823.239000",
        "175824.252000",
        "175825.275000",
        "175826.247000",
        "175827.300000",
        "175828.278000",
        "175829.281000",
        "175830.260000",
        "175831.260000",
        "175832.236000",
        "175833.258000",
        "175834.259000",
        "175835.249000",
        "175836.240000",
        "175837.283000",
        "175838.251000",
        "175839.264000",
        "175840.259000",
        "175841.251000",
        "175842.258000",
        "175843.269000",
        "175844.255000",
        "175845.259000",
        "175846.271000",
        "175847.275000",
        "175848.267000",
        "175849.380000",
        "175850.250000",
        "175851.245000",
        "175852.227000",
        "175853.264000",
        "175854.278000",
        "175855.247000",
        "175856.291000",
        "175857.273000",
        "175858.306000",
        "175859.270000",
        "175900.282000",
        "175901.254000",
        "175902.263000",
        "175903.260000",
        "175904.266000",
        "175905.271000",
        "175906.269000",
        "175907.268000",
        "175908.262000",
        "175909.244000",
        "175910.246000",
        "175911.252000",
        "175912.253000",
        "175913.267000",
        "175914.253000",
        "175915.270000",
        "175916.271000",
        "175917.242000",
        "175918.256000",
        "175919.278000",
        "175920.244000",
        "175921.248000",
        "175922.251000",
        "175923.266000",
        "175924.264000",
        "175925.265000",
        "175926.285000",
        "175927.246000",
        "175928.261000",
        "175929.240000",
        "175930.284000",
        "175931.273000",
        "175932.313000"
      ],
      "InstanceNumber": [
        1,
        2,
        3,
        4,
        5,
        6,
        7,
        8,
        9,
        10,
        11,
        12,
        13,
        14,
        15,
        16,
        17,
        18,
        19,
        20,
        21,
        22,
        23,
        24,
        25,
        26,
        27,
        28,
        29,
        30,
        31,
        32,
        33,
        34,
        35,
        36,
        37,
        38,
        39,
        40,
        41,
        42,
        43,
        44,
        45,
        46,
        47,
        48,
        49,
        50,
        51,
        52,
        53,
        54,
        55,
        56,
        57,
        58,
        59,
        60,
        61,
        62,
        63,
        64,
        65,
        66,
        67,
        68,
        69,
        70,
        71,
        72,
        73,
        74,
        75,
        76,
        77,
        78,
        79,
        80,
        81,
        82,
        83,
        84,
        85,
        86,
        87,
        88,
        89,
        90,
        91,
        92,
        93,
        94,
        95,
        96,
        97,
        98,
        99,
        100,
        101,
        102,
        103,
        104,
        105,
        106,
        107,
        108,
        109,
        110,
        111,
        112,
        113,
        114,
        115,
        116,
        117,
        118,
        119,
        120,
        121,
        122,
        123,
        124,
        125,
        126,
        127,
        128,
        129,
        130,
        131,
        132,
        133,
        134,
        135,
        136,
        137,
        138,
        139,
        140,
        141,
        142,
        143,
        144,
        145,
        146,
        147,
        148,
        149,
        150,
        151,
        152,
        153,
        154,
        155,
        156,
