{
  "AcquisitionMatrixPE": 96,
  "AcquisitionNumber": 1,
  "BandwidthPerPixelPhaseEncode": 18.939,
  "BaseResolution": 96,
  "BodyPartExamined": "BRAIN",
  "ConsistencyInfo": "N4_VE11C_LATEST_20160120",
  "ConversionSoftware": "dcm2niix",
  "ConversionSoftwareVersion": "v1.0.20171215 (OpenJPEG build) GCC6.3.0",
  "DerivedVendorReportedEchoSpacing": 0.000550011,
  "DeviceSerialNumber": "66112",
  "DwellTime": 2.2e-06,
  "EchoTime": 0.033,
  "EchoTrainLength": 96,
  "EffectiveEchoSpacing": 0.000550011,
  "FlipAngle": 59,
  "ImageOrientationPatientDICOM": [
    0.998778,
    0.0474279,
    0.0139095,
    -0.0474506,
    0.998873,
    0.00130639
  ],
  "ImageType": [
    "ORIGINAL",
    "PRIMARY",
    "FMRI",
    "NONE",
    "ND",
    "NORM",
    "MOSAIC"
  ],
  "InPlanePhaseEncodingDirectionDICOM": "COL",
  "InstitutionAddress": "Maynard_3_Hanover_NH_US_03755",
  "InstitutionName": "Dartmouth_College_-_PBS",
  "InstitutionalDepartmentName": "Department",
  "MRAcquisitionType": "2D",
  "MagneticFieldStrength": 3,
  "Manufacturer": "Siemens",
  "ManufacturersModelName": "Prisma",
  "Modality": "MR",
  "MultibandAccelerationFactor": 4,
  "PartialFourier": 1,
  "PatientPosition": "HFS",
  "PercentPhaseFOV": 100,
  "PhaseEncodingDirection": "j-",
  "PhaseEncodingSteps": 96,
  "PhaseResolution": 1,
  "PixelBandwidth": 2365,
  "ProcedureStepDescription": "Gobbini_Matteo_1038_hyperface",
  "ProtocolName": "func_run-01_task-localizer",
  "PulseSequenceDetails": "%SiemensSeq%_ep2d_bold",
  "ReceiveCoilActiveElements": "HEA;HEP",
  "ReceiveCoilName": "Head_32",
  "ReconMatrixPE": 96,
  "RepetitionTime": 1,
  "SAR": 0.0439425,
  "ScanOptions": "FS",
  "ScanningSequence": "EP",
  "SequenceName": "_epfid2d1_96",
  "SequenceVariant": "SK",
  "SeriesDescription": "func_run-01_task-localizer",
  "SeriesNumber": 8,
  "ShimSetting": [
    4140,
    -7705,
    -7315,
    591,
    -34,
    -21,
    3,
    59
  ],
  "SliceThickness": 2.5,
  "SliceTiming": [
    0.735,
    0,
    0.49,
    0.08,
    0.57,
    0.1625,
    0.6525,
    0.325,
    0.815,
    0.4075,
    0.8975,
    0.245,
    0.735,
    0,
    0.49,
    0.08,
    0.57,
    0.1625,
    0.6525,
    0.325,
    0.815,
    0.4075,
    0.8975,
    0.245,
    0.735,
    0,
    0.49,
    0.08,
    0.57,
    0.1625,
    0.6525,
    0.325,
    0.815,
    0.4075,
    0.8975,
    0.245,
    0.735,
    0,
    0.49,
    0.08,
    0.57,
    0.1625,
    0.6525,
    0.325,
    0.815,
    0.4075,
    0.8975,
    0.245
  ],
  "SoftwareVersions": "syngo_MR_E11",
  "SpacingBetweenSlices": 2.5,
  "StationName": "AWP66112",
  "TotalReadoutTime": 0.0522511,
  "TxRefAmp": 222.057,
  "time": {
    "samples": {
      "AcquisitionNumber": [
        1,
        2,
        3,
        4,
        5,
        6,
        7,
        8,
        9,
        10,
        11,
        12,
        13,
        14,
        15,
        16,
        17,
        18,
        19,
        20,
        21,
        22,
        23,
        24,
        25,
        26,
        27,
        28,
        29,
        30,
        31,
        32,
        33,
        34,
        35,
        36,
        37,
        38,
        39,
        40,
        41,
        42,
        43,
        44,
        45,
        46,
        47,
        48,
        49,
        50,
        51,
        52,
        53,
        54,
        55,
        56,
        57,
        58,
        59,
        60,
        61,
        62,
        63,
        64,
        65,
        66,
        67,
        68,
        69,
        70,
        71,
        72,
        73,
        74,
        75,
        76,
        77,
        78,
        79,
        80,
        81,
        82,
        83,
        84,
        85,
        86,
        87,
        88,
        89,
        90,
        91,
        92,
        93,
        94,
        95,
        96,
        97,
        98,
        99,
        100,
        101,
        102,
        103,
        104,
        105,
        106,
        107,
        108,
        109,
        110,
        111,
        112,
        113,
        114,
        115,
        116,
        117,
        118,
        119,
        120,
        121,
        122,
        123,
        124,
        125,
        126,
        127,
        128,
        129,
        130,
        131,
        132,
        133,
        134,
        135,
        136,
        137,
        138,
        139,
        140,
        141,
        142,
        143,
        144,
        145,
        146,
        147,
        148,
        149,
        150,
        151,
        152,
        153,
        154,
        155,
        156,
        157,
        158,
        159,
        160,
        161,
        162,
        163,
        164,
        165,
        166,
        167,
        168,
        169,
        170,
        171,
        172,
        173,
        174,
        175,
        176,
        177,
        178,
        179,
        180,
        181,
        182,
        183,
        184,
        185,
        186,
        187,
        188,
        189,
        190,
        191,
        192,
        193,
        194,
        195,
        196,
        197,
        198,
        199,
        200,
        201,
        202,
        203,
        204,
        205,
        206,
        207,
        208,
        209,
        210,
        211,
        212,
        213,
        214,
        215,
        216,
        217,
        218,
        219,
        220,
        221,
        222,
        223,
        224,
        225,
        226,
        227,
        228,
        229,
        230,
        231,
        232,
        233,
        234,
        235,
        236
      ],
      "AcquisitionTime": [
        "171854.662500",
        "171855.662500",
        "171856.662500",
        "171857.662500",
        "171858.662500",
        "171859.662500",
        "171900.662500",
        "171901.662500",
        "171902.662500",
        "171903.662500",
        "171904.662500",
        "171905.662500",
        "171906.662500",
        "171907.662500",
        "171908.662500",
        "171909.662500",
        "171910.662500",
        "171911.662500",
        "171912.662500",
        "171913.662500",
        "171914.662500",
        "171915.662500",
        "171916.662500",
        "171917.662500",
        "171918.662500",
        "171919.662500",
        "171920.662500",
        "171921.662500",
        "171922.662500",
        "171923.662500",
        "171924.662500",
        "171925.662500",
        "171926.662500",
        "171927.662500",
        "171928.662500",
        "171929.662500",
        "171930.662500",
        "171931.662500",
        "171932.662500",
        "171933.662500",
        "171934.662500",
        "171935.662500",
        "171936.662500",
        "171937.662500",
        "171938.662500",
        "171939.662500",
        "171940.662500",
        "171941.662500",
        "171942.662500",
        "171943.662500",
        "171944.662500",
        "171945.662500",
        "171946.662500",
        "171947.662500",
        "171948.662500",
        "171949.662500",
        "171950.662500",
        "171951.662500",
        "171952.662500",
        "171953.662500",
        "171954.662500",
        "171955.662500",
        "171956.662500",
        "171957.662500",
        "171958.662500",
        "171959.662500",
        "172000.662500",
        "172001.662500",
        "172002.662500",
        "172003.662500",
        "172004.662500",
        "172005.662500",
        "172006.662500",
        "172007.662500",
        "172008.662500",
        "172009.662500",
        "172010.662500",
        "172011.662500",
        "172012.662500",
        "172013.662500",
        "172014.662500",
        "172015.662500",
        "172016.662500",
        "172017.662500",
        "172018.662500",
        "172019.662500",
        "172020.662500",
        "172021.662500",
        "172022.662500",
        "172023.662500",
        "172024.662500",
        "172025.662500",
        "172026.662500",
        "172027.662500",
        "172028.662500",
        "172029.662500",
        "172030.662500",
        "172031.662500",
        "172032.662500",
        "172033.662500",
        "172034.662500",
        "172035.662500",
        "172036.662500",
        "172037.662500",
        "172038.662500",
        "172039.662500",
        "172040.662500",
        "172041.662500",
        "172042.662500",
        "172043.662500",
        "172044.662500",
        "172045.662500",
        "172046.662500",
        "172047.662500",
        "172048.662500",
        "172049.662500",
        "172050.662500",
        "172051.662500",
        "172052.662500",
        "172053.662500",
        "172054.662500",
        "172055.662500",
        "172056.662500",
        "172057.662500",
        "172058.662500",
        "172059.662500",
        "172100.662500",
        "172101.662500",
        "172102.662500",
        "172103.662500",
        "172104.662500",
        "172105.662500",
        "172106.662500",
        "172107.662500",
        "172108.662500",
        "172109.662500",
        "172110.662500",
        "172111.662500",
        "172112.662500",
        "172113.662500",
        "172114.662500",
        "172115.662500",
        "172116.662500",
        "172117.662500",
        "172118.662500",
        "172119.662500",
        "172120.662500",
        "172121.662500",
        "172122.662500",
        "172123.662500",
        "172124.662500",
        "172125.662500",
        "172126.662500",
        "172127.662500",
        "172128.662500",
        "172129.662500",
        "172130.662500",
        "172131.662500",
        "172132.662500",
        "172133.662500",
        "172134.662500",
        "172135.662500",
        "172136.662500",
        "172137.662500",
        "172138.662500",
        "172139.662500",
        "172140.662500",
        "172141.662500",
        "172142.662500",
        "172143.662500",
        "172144.662500",
        "172145.662500",
        "172146.662500",
        "172147.662500",
        "172148.662500",
        "172149.662500",
        "172150.662500",
        "172151.662500",
        "172152.662500",
        "172153.662500",
        "172154.662500",
        "172155.662500",
        "172156.662500",
        "172157.662500",
        "172158.662500",
        "172159.662500",
        "172200.662500",
        "172201.662500",
        "172202.662500",
        "172203.662500",
        "172204.662500",
        "172205.662500",
        "172206.662500",
        "172207.662500",
        "172208.662500",
        "172209.662500",
        "172210.662500",
        "172211.662500",
        "172212.662500",
        "172213.662500",
        "172214.662500",
        "172215.662500",
        "172216.662500",
        "172217.662500",
        "172218.662500",
        "172219.662500",
        "172220.662500",
        "172221.662500",
        "172222.662500",
        "172223.662500",
        "172224.662500",
        "172225.662500",
        "172226.662500",
        "172227.662500",
        "172228.662500",
        "172229.662500",
        "172230.662500",
        "172231.662500",
        "172232.662500",
        "172233.662500",
        "172234.662500",
        "172235.662500",
        "172236.662500",
        "172237.662500",
        "172238.662500",
        "172239.662500",
        "172240.662500",
        "172241.662500",
        "172242.662500",
        "172243.662500",
        "172244.662500",
        "172245.662500",
        "172246.662500",
        "172247.662500",
        "172248.662500",
        "172249.662500"
      ],
      "ContentTime": [
        "171856.156000",
        "171857.030000",
        "171858.073000",
        "171859.035000",
        "171900.013000",
        "171901.035000",
        "171902.020000",
        "171903.043000",
        "171904.047000",
        "171905.072000",
        "171906.033000",
        "171907.044000",
        "171908.038000",
        "171909.018000",
        "171910.037000",
        "171911.010000",
        "171912.026000",
        "171913.037000",
        "171914.097000",
        "171915.044000",
        "171916.021000",
        "171916.997000",
        "171918.032000",
        "171919.006000",
        "171920.010000",
        "171921.014000",
        "171922.028000",
        "171923.055000",
        "171924.059000",
        "171925.049000",
        "171926.007000",
        "171927.074000",
        "171928.051000",
        "171929.033000",
        "171930.009000",
        "171931.032000",
        "171932.032000",
        "171933.023000",
        "171934.025000",
        "171934.993000",
        "171936.016000",
        "171937.015000",
        "171938.025000",
        "171939.024000",
        "171940.017000",
        "171941.020000",
        "171942.013000",
        "171943.057000",
        "171944.055000",
        "171945.020000",
        "171946.012000",
        "171947.032000",
        "171948.054000",
        "171949.041000",
        "171950.003000",
        "171951.060000",
        "171952.044000",
        "171953.028000",
        "171954.034000",
        "171955.019000",
        "171956.003000",
        "171957.058000",
        "171958.017000",
        "171959.028000",
        "172000.030000",
        "172001.010000",
        "172002.016000",
        "172003.016000",
        "172004.050000",
        "172005.035000",
        "172006.056000",
        "172007.007000",
        "172008.028000",
        "172009.012000",
        "172010.017000",
        "172011.032000",
        "172012.030000",
        "172013.040000",
        "172014.010000",
        "172015.029000",
        "172016.008000",
        "172017.008000",
        "172018.040000",
        "172019.059000",
        "172020.004000",
        "172021.031000",
        "172022.035000",
        "172023.000000",
        "172024.029000",
        "172025.041000",
        "172026.055000",
        "172027.052000",
        "172028.016000",
        "172029.034000",
        "172030.031000",
        "172031.019000",
        "172032.043000",
        "172033.028000",
        "172034.030000",
        "172035.035000",
        "172036.033000",
        "172037.027000",
        "172038.029000",
        "172039.031000",
        "172040.017000",
        "172041.030000",
        "172042.044000",
        "172043.044000",
        "172044.034000",
        "172045.047000",
        "172046.033000",
        "172047.030000",
        "172048.048000",
        "172049.025000",
        "172050.007000",
        "172051.052000",
        "172052.020000",
        "172053.020000",
        "172054.029000",
        "172055.053000",
        "172056.025000",
        "172057.028000",
        "172058.026000",
        "172059.035000",
        "172100.037000",
        "172101.018000",
        "172102.021000",
        "172103.028000",
        "172104.027000",
        "172105.038000",
        "172106.056000",
        "172107.028000",
        "172108.039000",
        "172109.093000",
        "172110.040000",
        "172111.029000",
        "172112.008000",
        "172113.049000",
        "172114.041000",
        "172115.034000",
        "172116.026000",
        "172117.055000",
        "172118.053000",
        "172119.041000",
        "172120.030000",
        "172121.032000",
        "172122.078000",
        "172123.041000",
        "172124.037000",
        "172125.019000",
        "172126.004000",
        "172127.027000",
        "172128.043000",
        "172129.044000",
        "172130.038000",
        "172131.023000",
        "172132.018000",
        "172133.032000",
        "172134.032000",
        "172135.029000",
        "172136.052000",
        "172137.034000",
        "172138.043000",
        "172139.035000",
        "172140.022000",
        "172141.020000",
        "172142.035000",
        "172142.988000",
        "172144.036000",
        "172145.025000",
        "172146.021000",
        "172147.029000",
        "172148.030000",
        "172149.028000",
        "172150.027000",
        "172151.032000",
        "172152.029000",
        "172153.018000",
        "172154.026000",
        "172155.036000",
        "172156.035000",
        "172157.030000",
        "172158.044000",
        "172159.032000",
        "172200.031000",
        "172201.028000",
        "172202.032000",
        "172203.031000",
        "172204.050000",
        "172204.998000",
        "172206.032000",
        "172207.017000",
        "172208.034000",
        "172209.000000",
        "172210.041000",
        "172211.046000",
        "172212.085000",
        "172213.020000",
        "172213.986000",
        "172215.017000",
        "172216.022000",
        "172217.036000",
        "172218.016000",
        "172219.044000",
        "172220.021000",
        "172221.026000",
        "172222.034000",
        "172223.085000",
        "172224.038000",
        "172225.030000",
        "172226.029000",
        "172227.024000",
        "172228.015000",
        "172229.067000",
        "172230.027000",
        "172231.016000",
        "172232.043000",
        "172233.059000",
        "172233.994000",
        "172235.016000",
        "172236.030000",
        "172237.035000",
        "172238.016000",
        "172239.029000",
        "172240.022000",
        "172241.039000",
        "172242.105000",
        "172243.018000",
        "172244.030000",
        "172245.012000",
        "172246.057000",
        "172247.020000",
        "172248.030000",
        "172249.024000",
        "172250.021000",
        "172251.042000"
      ],
      "InstanceCreationTime": [
        "171856.156000",
        "171857.030000",
        "171858.073000",
        "171859.035000",
        "171900.013000",
        "171901.035000",
        "171902.020000",
        "171903.043000",
        "171904.047000",
        "171905.072000",
        "171906.033000",
        "171907.044000",
        "171908.038000",
        "171909.018000",
        "171910.037000",
        "171911.010000",
        "171912.026000",
        "171913.037000",
        "171914.097000",
        "171915.044000",
        "171916.021000",
        "171916.997000",
        "171918.032000",
        "171919.006000",
        "171920.010000",
        "171921.014000",
        "171922.028000",
        "171923.055000",
        "171924.059000",
        "171925.049000",
        "171926.007000",
        "171927.074000",
        "171928.051000",
        "171929.033000",
        "171930.009000",
        "171931.032000",
        "171932.032000",
        "171933.023000",
        "171934.025000",
        "171934.993000",
        "171936.016000",
        "171937.015000",
        "171938.025000",
        "171939.024000",
        "171940.017000",
        "171941.020000",
        "171942.013000",
        "171943.057000",
        "171944.055000",
        "171945.020000",
        "171946.012000",
        "171947.032000",
        "171948.054000",
        "171949.041000",
        "171950.003000",
        "171951.060000",
        "171952.044000",
        "171953.028000",
        "171954.034000",
        "171955.019000",
        "171956.003000",
        "171957.058000",
        "171958.017000",
        "171959.028000",
        "172000.030000",
        "172001.010000",
        "172002.016000",
        "172003.016000",
        "172004.050000",
        "172005.035000",
        "172006.056000",
        "172007.007000",
        "172008.028000",
        "172009.012000",
        "172010.017000",
        "172011.032000",
        "172012.030000",
        "172013.040000",
        "172014.010000",
        "172015.029000",
        "172016.008000",
        "172017.008000",
        "172018.040000",
        "172019.059000",
        "172020.004000",
        "172021.031000",
        "172022.035000",
        "172023.000000",
        "172024.029000",
        "172025.041000",
        "172026.055000",
        "172027.052000",
        "172028.016000",
        "172029.034000",
        "172030.031000",
        "172031.019000",
        "172032.043000",
        "172033.028000",
        "172034.030000",
        "172035.035000",
        "172036.033000",
        "172037.027000",
        "172038.029000",
        "172039.031000",
        "172040.017000",
        "172041.030000",
        "172042.044000",
        "172043.044000",
        "172044.034000",
        "172045.047000",
        "172046.033000",
        "172047.030000",
        "172048.048000",
        "172049.025000",
        "172050.007000",
        "172051.052000",
        "172052.020000",
        "172053.020000",
        "172054.029000",
        "172055.053000",
        "172056.025000",
        "172057.028000",
        "172058.026000",
        "172059.035000",
        "172100.037000",
        "172101.018000",
        "172102.021000",
        "172103.028000",
        "172104.027000",
        "172105.038000",
        "172106.056000",
        "172107.028000",
        "172108.039000",
        "172109.093000",
        "172110.040000",
        "172111.029000",
        "172112.008000",
        "172113.049000",
        "172114.041000",
        "172115.034000",
        "172116.026000",
        "172117.055000",
        "172118.053000",
        "172119.041000",
        "172120.030000",
        "172121.032000",
        "172122.078000",
        "172123.041000",
        "172124.037000",
        "172125.019000",
        "172126.004000",
        "172127.027000",
        "172128.043000",
        "172129.044000",
        "172130.038000",
        "172131.023000",
        "172132.018000",
        "172133.032000",
        "172134.032000",
        "172135.029000",
        "172136.052000",
        "172137.034000",
        "172138.043000",
        "172139.035000",
        "172140.022000",
        "172141.020000",
        "172142.035000",
        "172142.988000",
        "172144.036000",
        "172145.025000",
        "172146.021000",
        "172147.029000",
        "172148.030000",
        "172149.028000",
        "172150.027000",
        "172151.032000",
        "172152.029000",
        "172153.018000",
        "172154.026000",
        "172155.036000",
        "172156.035000",
        "172157.030000",
        "172158.044000",
        "172159.032000",
        "172200.031000",
        "172201.028000",
        "172202.032000",
        "172203.031000",
        "172204.050000",
        "172204.998000",
        "172206.032000",
        "172207.017000",
        "172208.034000",
        "172209.000000",
        "172210.041000",
        "172211.046000",
        "172212.085000",
        "172213.020000",
        "172213.986000",
        "172215.017000",
        "172216.022000",
        "172217.036000",
        "172218.016000",
        "172219.044000",
        "172220.021000",
        "172221.026000",
        "172222.034000",
        "172223.085000",
        "172224.038000",
        "172225.030000",
        "172226.029000",
        "172227.024000",
        "172228.015000",
        "172229.067000",
        "172230.027000",
        "172231.016000",
        "172232.043000",
        "172233.059000",
        "172233.994000",
        "172235.016000",
        "172236.030000",
        "172237.035000",
        "172238.016000",
        "172239.029000",
        "172240.022000",
        "172241.039000",
        "172242.105000",
        "172243.018000",
        "172244.030000",
        "172245.012000",
        "172246.057000",
        "172247.020000",
        "172248.030000",
        "172249.024000",
        "172250.021000",
        "172251.042000"
      ],
      "InstanceNumber": [
        1,
        2,
        3,
        4,
        5,
        6,
        7,
        8,
        9,
        10,
        11,
        12,
        13,
        14,
        15,
        16,
        17,
        18,
        19,
        20,
        21,
        22,
        23,
        24,
        25,
        26,
        27,
        28,
        29,
        30,
        31,
        32,
        33,
        34,
        35,
        36,
        37,
        38,
        39,
        40,
        41,
        42,
        43,
        44,
        45,
        46,
        47,
        48,
        49,
        50,
        51,
        52,
        53,
        54,
        55,
        56,
        57,
        58,
        59,
        60,
        61,
        62,
        63,
        64,
        65,
        66,
        67,
        68,
        69,
        70,
        71,
        72,
        73,
        74,
        75,
        76,
        77,
        78,
        79,
        80,
        81,
        82,
        83,
        84,
        85,
        86,
        87,
        88,
        89,
        90,
        91,
        92,
        93,
        94,
        95,
        96,
        97,
        98,
        99,
        100,
        101,
        102,
        103,
        104,
        105,
        106,
        107,
        108,
        109,
        110,
        111,
        112,
        113,
        114,
        115,
        116,
        117,
        118,
        119,
        120,
        121,
        122,
        123,
        124,
        125,
        126,
        127,
        128,
        129,
        130,
        131,
        132,
        133,
        134,
        135,
        136,
        137,
        138,
        139,
        140,
        141,
        142,
        143,
        144,
        145,
        146,
        147,
        148,
        149,
        150,
        151,
        152,
        153,
        154,
        155,
        156,
        157,
        158,
        159,
        160,
        161,
        162,
        163,
        164,
        165,
        166,
        167,
        168,
        169,
        170,
        171,
        172,
        173,
        174,
        175,
        176,
        177,
        178,
        179,
        180,
        181,
        182,
        183,
        184,
        185,
        186,
        187,
        188,
        189,
        190,
        191,
        192,
        193,
        194,
        195,
        196,
        197,
        198,
        199,
        200,
        201,
        202,
        203,
        204,
        205,
        206,
        207,
        208,
        209,
        210,
        211,
        212,
        213,
        214,
        215,
        216,
        217,
        218,
        219,
        220,
        221,
        222,
        223,
        224,
        225,
        226,
        227,
        228,
        229,
        230,
        231,
        232,
        233,
        234,
        235,
        236
      ],
      "LargestImagePixelValue": [
        785,
        935,
        928,
        763,
        878,
        921,
        858,
        709,
        858,
        880,
        707,
        902,
        738,
        718,
        823,
        748,
        861,
        706,
        908,
        888,
        710,
        734,
        705,
        705,
        705,
        709,
        710,
        716,
        705,
        714,
        712,
        812,
        942,
        825,
        796,
        918,
        832,
        709,
        858,
        725,
        706,
        825,
        826,
        709,
        709,
        933,
        699,
        718,
        891,
        710,
        861,
        772,
        701,
        919,
        818,
        707,
        926,
        703,
        729,
        906,
        708,
        712,
        897,
        710,
        713,
        768,
        712,
        713,
        763,
        845,
        712,
        876,
        908,
        713,
        815,
        820,
        709,
        726,
        762,
        713,
        707,
        775,
        710,
        712,
        841,
        802,
        736,
        868,
        860,
        708,
        842,
        724,
        704,
        869,
        707,
        713,
        902,
        712,
        707,
        929,
        703,
        704,
        711,
        703,
        848,
        729,
        708,
        888,
        733,
        706,
        887,
        709,
        705,
        740,
        707,
        879,
        714,
        858,
        776,
        714,
        922,
        712,
        713,
        931,
        707,
        715,
        846,
        703,
        723,
        829,
        708,
        727,
        883,
        707,
        765,
        887,
        708,
        744,
        847,
        713,
        737,
        786,
        816,
        831,
        912,
        867,
        701,
        710,
        706,
        707,
        747,
        706,
        711,
        922,
        704,
        710,
        927,
        705,
        702,
        916,
        701,
        709,
        952,
        708,
        710,
        893,
        703,
        782,
        734,
        701,
        853,
        930,
        703,
        836,
        908,
        705,
        712,
        900,
        702,
        727,
        798,
        702,
        714,
        767,
        702,
        750,
        817,
        703,
        775,
        775,
        708,
        702,
        771,
        707,
        699,
        780,
        709,
        706,
        840,
        729,
        705,
        913,
        726,
        735,
        710,
        791,
        874,
        710,
        757,
        713,
        713,
        719,
        706,
        723,
        832,
        707,
        724,
        844,
        702,
        734,
        827,
        705,
        807,
        871,
        702,
        724,
        806,
        702,
        732,
        881,
        704,
        779,
        930,
        704,
        705,
        784
      ],
      "WindowCenter": [
        347,
        347,
        347,
        345,
        346,
        346,
        345,
        343,
        345,
        345,
        344,
        345,
        344,
        344,
        345,
        344,
        345,
        344,
        345,
        345,
        343,
        344,
        343,
        344,
        344,
        344,
        345,
        344,
        344,
        345,
