{
  "AcquisitionMatrixPE": 96,
  "AcquisitionNumber": 1,
  "BandwidthPerPixelPhaseEncode": 18.939,
  "BaseResolution": 96,
  "BodyPartExamined": "BRAIN",
  "ConsistencyInfo": "N4_VE11C_LATEST_20160120",
  "ConversionSoftware": "dcm2niix",
  "ConversionSoftwareVersion": "v1.0.20171215 (OpenJPEG build) GCC6.3.0",
  "DerivedVendorReportedEchoSpacing": 0.000550011,
  "DeviceSerialNumber": "66112",
  "DwellTime": 2.2e-06,
  "EchoTime": 0.033,
  "EchoTrainLength": 96,
  "EffectiveEchoSpacing": 0.000550011,
  "FlipAngle": 59,
  "ImageOrientationPatientDICOM": [
    0.998778,
    0.0474279,
    0.0139095,
    -0.0474506,
    0.998873,
    0.00130639
  ],
  "ImageType": [
    "ORIGINAL",
    "PRIMARY",
    "FMRI",
    "NONE",
    "ND",
    "NORM",
    "MOSAIC"
  ],
  "InPlanePhaseEncodingDirectionDICOM": "COL",
  "InstitutionAddress": "Maynard_3_Hanover_NH_US_03755",
  "InstitutionName": "Dartmouth_College_-_PBS",
  "InstitutionalDepartmentName": "Department",
  "MRAcquisitionType": "2D",
  "MagneticFieldStrength": 3,
  "Manufacturer": "Siemens",
  "ManufacturersModelName": "Prisma",
  "Modality": "MR",
  "MultibandAccelerationFactor": 4,
  "PatientPosition": "HFS",
  "PercentPhaseFOV": 100,
  "PhaseEncodingDirection": "j-",
  "PhaseEncodingSteps": 96,
  "PhaseResolution": 1,
  "PixelBandwidth": 2365,
  "ProcedureStepDescription": "Gobbini_Matteo_1038_hyperface",
  "ProtocolName": "func_run-02_task-visualmemory",
  "PulseSequenceDetails": "%SiemensSeq%_ep2d_bold",
  "ReceiveCoilActiveElements": "HEA;HEP",
  "ReceiveCoilName": "Head_32",
  "ReconMatrixPE": 96,
  "RepetitionTime": 1,
  "SAR": 0.0440479,
  "ScanOptions": "FS",
  "ScanningSequence": "EP",
  "SequenceName": "_epfid2d1_96",
  "SequenceVariant": "SK",
  "SeriesDescription": "func_run-02_task-visualmemory",
  "SeriesNumber": 15,
  "ShimSetting": [
    4140,
    -7705,
    -7315,
    591,
    -34,
    -21,
    3,
    59
  ],
  "SliceThickness": 2.5,
  "SliceTiming": [
    0.735,
    0,
    0.49,
    0.08,
    0.57,
    0.1625,
    0.6525,
    0.325,
    0.815,
    0.4075,
    0.8975,
    0.245,
    0.735,
    0,
    0.49,
    0.08,
    0.57,
    0.1625,
    0.6525,
    0.325,
    0.815,
    0.4075,
    0.8975,
    0.245,
    0.735,
    0,
    0.49,
    0.08,
    0.57,
    0.1625,
    0.6525,
    0.325,
    0.815,
    0.4075,
    0.8975,
    0.245,
    0.735,
    0,
    0.49,
    0.08,
    0.57,
    0.1625,
    0.6525,
    0.325,
    0.815,
    0.4075,
    0.8975,
    0.245
  ],
  "SoftwareVersions": "syngo_MR_E11",
  "SpacingBetweenSlices": 2.5,
  "StationName": "AWP66112",
  "TotalReadoutTime": 0.0522511,
  "TxRefAmp": 222.057,
  "time": {
    "samples": {
      "AcquisitionNumber": [
        1,
        2,
        3,
        4,
        5,
        6,
        7,
        8,
        9,
        10,
        11,
        12,
        13,
        14,
        15,
        16,
        17,
        18,
        19,
        20,
        21,
        22,
        23,
        24,
        25,
        26,
        27,
        28,
        29,
        30,
        31,
        32,
        33,
        34,
        35,
        36,
        37,
        38,
        39,
        40,
        41,
        42,
        43,
        44,
        45,
        46,
        47,
        48,
        49,
        50,
        51,
        52,
        53,
        54,
        55,
        56,
        57,
        58,
        59,
        60,
        61,
        62,
        63,
        64,
        65,
        66,
        67,
        68,
        69,
        70,
        71,
        72,
        73,
        74,
        75,
        76,
        77,
        78,
        79,
        80,
        81,
        82,
        83,
        84,
        85,
        86,
        87,
        88,
        89,
        90,
        91,
        92,
        93,
        94,
        95,
        96,
        97,
        98,
        99,
        100,
        101,
        102,
        103,
        104,
        105,
        106,
        107,
        108,
        109,
        110,
        111,
        112,
        113,
        114,
        115,
        116,
        117,
        118,
        119,
        120,
        121,
        122,
        123,
        124,
        125,
        126,
        127,
        128,
        129,
        130,
        131,
        132,
        133,
        134,
        135,
        136,
        137,
        138,
        139,
        140,
        141,
        142,
        143,
        144,
        145,
        146,
        147,
        148,
        149,
        150,
        151,
        152,
        153,
        154,
        155,
        156,
        157,
        158,
        159,
        160,
        161,
        162,
        163,
        164,
        165,
        166,
        167,
        168,
        169,
        170,
        171,
        172,
        173,
        174,
        175,
        176,
        177,
        178,
        179,
        180,
        181,
        182,
        183,
        184,
        185,
        186,
        187,
        188,
        189,
        190,
        191,
        192,
        193,
        194,
        195,
        196,
        197,
        198,
        199,
        200,
        201,
        202,
        203,
        204,
        205,
        206,
        207,
        208,
        209,
        210,
        211,
        212,
        213,
        214,
        215,
        216,
        217,
        218,
        219,
        220,
        221,
        222,
        223,
        224,
        225,
        226,
        227,
        228,
        229,
        230,
        231,
        232,
        233,
        234,
        235,
        236,
        237,
        238,
        239,
        240,
        241,
        242,
        243,
        244,
        245,
        246,
        247,
        248,
        249,
        250,
        251,
        252,
        253,
        254,
        255,
        256,
        257,
        258,
        259,
        260,
        261,
        262,
        263,
        264,
        265,
        266,
        267,
        268,
        269,
        270,
        271,
        272,
        273,
        274,
        275,
        276,
        277,
        278,
        279,
        280,
        281,
        282,
        283,
        284,
        285,
        286,
        287,
        288
      ],
      "AcquisitionTime": [
        "172324.650000",
        "172325.650000",
        "172326.650000",
        "172327.650000",
        "172328.650000",
        "172329.650000",
        "172330.650000",
        "172331.650000",
        "172332.650000",
        "172333.650000",
        "172334.650000",
        "172335.650000",
        "172336.650000",
        "172337.650000",
        "172338.650000",
        "172339.650000",
        "172340.650000",
        "172341.650000",
        "172342.650000",
        "172343.650000",
        "172344.650000",
        "172345.650000",
        "172346.650000",
        "172347.650000",
        "172348.650000",
        "172349.650000",
        "172350.650000",
        "172351.650000",
        "172352.650000",
        "172353.650000",
        "172354.650000",
        "172355.650000",
        "172356.650000",
        "172357.650000",
        "172358.650000",
        "172359.650000",
        "172400.650000",
        "172401.650000",
        "172402.650000",
        "172403.650000",
        "172404.650000",
        "172405.650000",
        "172406.650000",
        "172407.650000",
        "172408.650000",
        "172409.650000",
        "172410.650000",
        "172411.650000",
        "172412.650000",
        "172413.650000",
        "172414.650000",
        "172415.650000",
        "172416.650000",
        "172417.650000",
        "172418.650000",
        "172419.650000",
        "172420.650000",
        "172421.650000",
        "172422.650000",
        "172423.650000",
        "172424.650000",
        "172425.650000",
        "172426.650000",
        "172427.650000",
        "172428.650000",
        "172429.650000",
        "172430.650000",
        "172431.650000",
        "172432.650000",
        "172433.650000",
        "172434.650000",
        "172435.650000",
        "172436.650000",
        "172437.650000",
        "172438.650000",
        "172439.650000",
        "172440.650000",
        "172441.650000",
        "172442.650000",
        "172443.650000",
        "172444.650000",
        "172445.650000",
        "172446.650000",
        "172447.650000",
        "172448.650000",
        "172449.650000",
        "172450.650000",
        "172451.650000",
        "172452.650000",
        "172453.650000",
        "172454.650000",
        "172455.650000",
        "172456.650000",
        "172457.650000",
        "172458.650000",
        "172459.650000",
        "172500.650000",
        "172501.650000",
        "172502.650000",
        "172503.650000",
        "172504.650000",
        "172505.650000",
        "172506.650000",
        "172507.650000",
        "172508.650000",
        "172509.650000",
        "172510.650000",
        "172511.650000",
        "172512.650000",
        "172513.650000",
        "172514.650000",
        "172515.650000",
        "172516.650000",
        "172517.650000",
        "172518.650000",
        "172519.650000",
        "172520.650000",
        "172521.650000",
        "172522.650000",
        "172523.650000",
        "172524.650000",
        "172525.650000",
        "172526.650000",
        "172527.650000",
        "172528.650000",
        "172529.650000",
        "172530.650000",
        "172531.650000",
        "172532.650000",
        "172533.650000",
        "172534.650000",
        "172535.650000",
        "172536.650000",
        "172537.650000",
        "172538.650000",
        "172539.650000",
        "172540.650000",
        "172541.650000",
        "172542.650000",
        "172543.650000",
        "172544.650000",
        "172545.650000",
        "172546.650000",
        "172547.650000",
        "172548.650000",
        "172549.650000",
        "172550.650000",
        "172551.650000",
        "172552.650000",
        "172553.650000",
        "172554.650000",
        "172555.650000",
        "172556.650000",
        "172557.650000",
        "172558.650000",
        "172559.650000",
        "172600.650000",
        "172601.650000",
        "172602.650000",
        "172603.650000",
        "172604.650000",
        "172605.650000",
        "172606.650000",
        "172607.650000",
        "172608.650000",
        "172609.650000",
        "172610.650000",
        "172611.650000",
        "172612.650000",
        "172613.650000",
        "172614.650000",
        "172615.650000",
        "172616.650000",
        "172617.650000",
        "172618.650000",
        "172619.650000",
        "172620.650000",
        "172621.650000",
        "172622.650000",
        "172623.650000",
        "172624.650000",
        "172625.650000",
        "172626.650000",
        "172627.650000",
        "172628.650000",
        "172629.650000",
        "172630.650000",
        "172631.650000",
        "172632.650000",
        "172633.650000",
        "172634.650000",
        "172635.650000",
        "172636.650000",
        "172637.650000",
        "172638.650000",
        "172639.650000",
        "172640.650000",
        "172641.650000",
        "172642.650000",
        "172643.650000",
        "172644.650000",
        "172645.650000",
        "172646.650000",
        "172647.650000",
        "172648.650000",
        "172649.650000",
        "172650.650000",
        "172651.650000",
        "172652.650000",
        "172653.650000",
        "172654.650000",
        "172655.650000",
        "172656.650000",
        "172657.650000",
        "172658.650000",
        "172659.650000",
        "172700.650000",
        "172701.650000",
        "172702.650000",
        "172703.650000",
        "172704.650000",
        "172705.650000",
        "172706.650000",
        "172707.650000",
        "172708.650000",
        "172709.650000",
        "172710.650000",
        "172711.650000",
        "172712.650000",
        "172713.650000",
        "172714.650000",
        "172715.650000",
        "172716.650000",
        "172717.650000",
        "172718.650000",
        "172719.650000",
        "172720.650000",
        "172721.650000",
        "172722.650000",
        "172723.650000",
        "172724.650000",
        "172725.650000",
        "172726.650000",
        "172727.650000",
        "172728.650000",
        "172729.650000",
        "172730.650000",
        "172731.650000",
        "172732.650000",
        "172733.650000",
        "172734.650000",
        "172735.650000",
        "172736.650000",
        "172737.650000",
        "172738.650000",
        "172739.650000",
        "172740.650000",
        "172741.650000",
        "172742.650000",
        "172743.650000",
        "172744.650000",
        "172745.650000",
        "172746.650000",
        "172747.650000",
        "172748.650000",
        "172749.650000",
        "172750.650000",
        "172751.650000",
        "172752.650000",
        "172753.650000",
        "172754.650000",
        "172755.650000",
        "172756.650000",
        "172757.650000",
        "172758.650000",
        "172759.650000",
        "172800.650000",
        "172801.650000",
        "172802.650000",
        "172803.650000",
        "172804.650000",
        "172805.650000",
        "172806.650000",
        "172807.650000",
        "172808.650000",
        "172809.650000",
        "172810.650000",
        "172811.650000"
      ],
      "ContentTime": [
        "172326.139000",
        "172326.990000",
        "172327.970000",
        "172328.972000",
        "172329.957000",
        "172330.941000",
        "172331.979000",
        "172332.954000",
        "172333.969000",
        "172334.957000",
        "172336.033000",
        "172336.997000",
        "172337.944000",
        "172338.960000",
        "172339.943000",
        "172340.990000",
        "172341.974000",
        "172342.992000",
        "172343.961000",
        "172344.963000",
        "172345.964000",
        "172346.965000",
        "172347.994000",
        "172348.955000",
        "172349.986000",
        "172350.963000",
        "172351.969000",
        "172352.959000",
        "172353.950000",
        "172354.963000",
        "172355.954000",
        "172356.962000",
        "172357.960000",
        "172358.970000",
        "172400.025000",
        "172400.955000",
        "172401.967000",
        "172402.994000",
        "172403.961000",
        "172404.930000",
        "172405.949000",
        "172407.015000",
        "172407.965000",
        "172408.951000",
        "172409.996000",
        "172410.997000",
        "172412.016000",
        "172412.949000",
        "172413.945000",
        "172414.960000",
        "172415.972000",
        "172416.942000",
        "172417.964000",
        "172418.967000",
        "172419.973000",
        "172420.993000",
        "172421.956000",
        "172422.955000",
        "172423.966000",
        "172424.968000",
        "172425.972000",
        "172426.937000",
        "172427.951000",
        "172428.969000",
        "172429.969000",
        "172430.945000",
        "172431.974000",
        "172432.984000",
        "172433.950000",
        "172434.960000",
        "172435.949000",
        "172436.972000",
        "172437.936000",
        "172438.983000",
        "172439.962000",
        "172440.959000",
        "172441.965000",
        "172442.970000",
        "172443.983000",
        "172444.967000",
        "172445.977000",
        "172446.960000",
        "172447.965000",
        "172448.967000",
        "172449.938000",
        "172450.940000",
        "172451.937000",
        "172452.945000",
        "172453.982000",
        "172455.014000",
        "172455.983000",
        "172456.970000",
        "172457.949000",
        "172458.961000",
        "172459.970000",
        "172500.954000",
        "172501.981000",
        "172503.013000",
        "172503.966000",
        "172504.940000",
        "172505.963000",
        "172506.967000",
        "172507.977000",
        "172508.969000",
        "172509.993000",
        "172510.994000",
        "172511.996000",
        "172512.953000",
        "172513.971000",
        "172514.968000",
        "172515.966000",
        "172516.975000",
        "172517.982000",
        "172518.975000",
        "172519.984000",
        "172520.981000",
        "172521.974000",
        "172522.987000",
        "172524.042000",
        "172524.967000",
        "172525.990000",
        "172526.981000",
        "172527.976000",
        "172528.981000",
        "172529.985000",
        "172530.975000",
        "172531.984000",
        "172532.983000",
        "172533.967000",
        "172534.971000",
        "172535.974000",
        "172536.971000",
        "172537.964000",
        "172538.965000",
        "172539.986000",
        "172541.035000",
        "172541.967000",
        "172542.964000",
        "172543.979000",
        "172544.989000",
        "172545.979000",
        "172547.001000",
        "172547.969000",
        "172548.966000",
        "172549.981000",
        "172550.975000",
        "172551.947000",
        "172552.922000",
        "172553.986000",
        "172554.958000",
        "172555.966000",
        "172556.984000",
        "172557.980000",
        "172558.969000",
        "172559.994000",
        "172600.964000",
        "172602.004000",
        "172603.003000",
        "172603.953000",
        "172604.939000",
        "172605.970000",
        "172607.000000",
        "172607.978000",
        "172608.965000",
        "172609.975000",
        "172610.944000",
        "172611.977000",
        "172612.967000",
        "172613.971000",
        "172614.959000",
        "172615.980000",
        "172616.977000",
        "172617.963000",
        "172618.980000",
        "172619.969000",
        "172620.964000",
        "172621.974000",
        "172623.034000",
        "172623.980000",
        "172624.957000",
        "172625.982000",
        "172626.978000",
        "172627.956000",
        "172628.983000",
        "172629.959000",
        "172631.016000",
        "172632.003000",
        "172632.941000",
        "172633.983000",
        "172634.959000",
        "172635.951000",
        "172636.966000",
        "172637.971000",
        "172638.998000",
        "172639.964000",
        "172640.979000",
        "172641.985000",
        "172642.973000",
        "172643.980000",
        "172645.030000",
        "172645.992000",
        "172646.966000",
        "172647.959000",
        "172649.020000",
        "172649.958000",
        "172650.962000",
        "172651.970000",
        "172653.003000",
        "172653.966000",
        "172654.953000",
        "172655.945000",
        "172656.991000",
        "172657.977000",
        "172658.964000",
        "172659.964000",
        "172700.983000",
        "172701.971000",
        "172702.959000",
        "172703.960000",
        "172704.974000",
        "172705.977000",
        "172706.982000",
        "172707.946000",
        "172708.973000",
        "172709.952000",
        "172710.957000",
        "172711.960000",
        "172712.956000",
        "172713.993000",
        "172714.954000",
        "172715.991000",
        "172716.994000",
        "172717.979000",
        "172718.969000",
        "172719.935000",
        "172720.942000",
        "172721.967000",
        "172722.969000",
        "172723.974000",
        "172724.957000",
        "172725.965000",
        "172726.990000",
        "172728.037000",
        "172728.952000",
        "172729.980000",
        "172730.972000",
        "172731.969000",
        "172732.971000",
        "172733.979000",
        "172734.984000",
        "172735.967000",
        "172736.980000",
        "172737.969000",
        "172738.950000",
        "172739.972000",
        "172740.960000",
        "172741.962000",
        "172742.953000",
        "172743.973000",
        "172744.971000",
        "172745.961000",
        "172746.972000",
        "172747.996000",
        "172748.972000",
        "172749.971000",
        "172750.975000",
        "172751.976000",
        "172752.984000",
        "172753.968000",
        "172754.963000",
        "172755.968000",
        "172756.953000",
        "172757.968000",
        "172758.996000",
        "172759.966000",
        "172800.959000",
        "172801.938000",
        "172802.964000",
        "172804.022000",
        "172804.980000",
        "172805.978000",
        "172806.952000",
        "172807.987000",
        "172808.942000",
        "172809.975000",
        "172810.980000",
        "172811.991000",
        "172813.004000"
      ],
      "InstanceCreationTime": [
        "172326.139000",
        "172326.990000",
        "172327.970000",
        "172328.972000",
        "172329.957000",
        "172330.941000",
        "172331.979000",
        "172332.954000",
        "172333.969000",
        "172334.957000",
        "172336.033000",
        "172336.997000",
        "172337.944000",
        "172338.960000",
        "172339.943000",
        "172340.990000",
        "172341.974000",
        "172342.992000",
        "172343.961000",
        "172344.963000",
        "172345.964000",
        "172346.965000",
        "172347.994000",
        "172348.955000",
        "172349.986000",
        "172350.963000",
        "172351.969000",
        "172352.959000",
        "172353.950000",
        "172354.963000",
        "172355.954000",
        "172356.962000",
        "172357.960000",
        "172358.970000",
        "172400.025000",
        "172400.955000",
        "172401.967000",
        "172402.994000",
        "172403.961000",
        "172404.930000",
        "172405.949000",
        "172407.015000",
        "172407.965000",
        "172408.951000",
        "172409.996000",
        "172410.997000",
        "172412.016000",
        "172412.949000",
        "172413.945000",
        "172414.960000",
        "172415.972000",
        "172416.942000",
        "172417.964000",
        "172418.967000",
        "172419.973000",
        "172420.993000",
        "172421.956000",
        "172422.955000",
        "172423.966000",
        "172424.968000",
        "172425.972000",
        "172426.937000",
        "172427.951000",
        "172428.969000",
        "172429.969000",
        "172430.945000",
        "172431.974000",
        "172432.984000",
        "172433.950000",
        "172434.960000",
        "172435.949000",
        "172436.972000",
        "172437.936000",
        "172438.983000",
        "172439.962000",
        "172440.959000",
        "172441.965000",
        "172442.970000",
        "172443.983000",
        "172444.967000",
        "172445.977000",
        "172446.960000",
        "172447.965000",
        "172448.967000",
        "172449.938000",
        "172450.940000",
        "172451.937000",
        "172452.945000",
        "172453.982000",
        "172455.014000",
        "172455.983000",
        "172456.970000",
        "172457.949000",
        "172458.961000",
        "172459.970000",
        "172500.954000",
        "172501.981000",
        "172503.013000",
        "172503.966000",
        "172504.940000",
        "172505.963000",
        "172506.967000",
        "172507.977000",
        "172508.969000",
        "172509.993000",
        "172510.994000",
        "172511.996000",
        "172512.953000",
        "172513.971000",
        "172514.968000",
        "172515.966000",
        "172516.975000",
        "172517.982000",
        "172518.975000",
        "172519.984000",
        "172520.981000",
        "172521.974000",
        "172522.987000",
        "172524.042000",
        "172524.967000",
        "172525.990000",
        "172526.981000",
        "172527.976000",
        "172528.981000",
        "172529.985000",
        "172530.975000",
        "172531.984000",
        "172532.983000",
        "172533.967000",
        "172534.971000",
        "172535.974000",
        "172536.971000",
        "172537.964000",
        "172538.965000",
        "172539.986000",
        "172541.035000",
        "172541.967000",
        "172542.964000",
        "172543.979000",
        "172544.989000",
        "172545.979000",
        "172547.001000",
        "172547.969000",
        "172548.966000",
        "172549.981000",
        "172550.975000",
        "172551.947000",
        "172552.922000",
        "172553.986000",
        "172554.958000",
        "172555.966000",
        "172556.984000",
        "172557.980000",
        "172558.969000",
        "172559.994000",
        "172600.964000",
        "172602.004000",
        "172603.003000",
        "172603.953000",
        "172604.939000",
        "172605.970000",
        "172607.000000",
        "172607.978000",
        "172608.965000",
        "172609.975000",
        "172610.944000",
        "172611.977000",
        "172612.967000",
        "172613.971000",
        "172614.959000",
        "172615.980000",
        "172616.977000",
        "172617.963000",
        "172618.980000",
        "172619.969000",
        "172620.964000",
        "172621.974000",
        "172623.034000",
        "172623.980000",
        "172624.957000",
        "172625.982000",
        "172626.978000",
        "172627.956000",
        "172628.983000",
        "172629.959000",
        "172631.016000",
        "172632.003000",
        "172632.941000",
        "172633.983000",
        "172634.959000",
        "172635.951000",
        "172636.966000",
        "172637.971000",
        "172638.998000",
        "172639.964000",
        "172640.979000",
        "172641.985000",
        "172642.973000",
        "172643.980000",
        "172645.030000",
        "172645.992000",
        "172646.966000",
        "172647.959000",
        "172649.020000",
        "172649.958000",
        "172650.962000",
        "172651.970000",
        "172653.003000",
        "172653.966000",
        "172654.953000",
        "172655.945000",
        "172656.991000",
        "172657.977000",
        "172658.964000",
        "172659.964000",
        "172700.983000",
        "172701.971000",
        "172702.959000",
        "172703.960000",
        "172704.974000",
        "172705.977000",
        "172706.982000",
        "172707.946000",
        "172708.973000",
        "172709.952000",
        "172710.957000",
        "172711.960000",
        "172712.956000",
        "172713.993000",
        "172714.954000",
        "172715.991000",
        "172716.994000",
        "172717.979000",
        "172718.969000",
        "172719.935000",
        "172720.942000",
        "172721.967000",
        "172722.969000",
        "172723.974000",
        "172724.957000",
        "172725.965000",
        "172726.990000",
        "172728.037000",
        "172728.952000",
        "172729.980000",
        "172730.972000",
        "172731.969000",
        "172732.971000",
        "172733.979000",
        "172734.984000",
        "172735.967000",
        "172736.980000",
        "172737.969000",
        "172738.950000",
        "172739.972000",
        "172740.960000",
        "172741.962000",
        "172742.953000",
        "172743.973000",
        "172744.971000",
        "172745.961000",
        "172746.972000",
        "172747.996000",
        "172748.972000",
        "172749.971000",
        "172750.975000",
        "172751.976000",
        "172752.984000",
        "172753.968000",
        "172754.963000",
        "172755.968000",
        "172756.953000",
        "172757.968000",
        "172758.996000",
        "172759.966000",
        "172800.959000",
        "172801.938000",
        "172802.964000",
        "172804.022000",
        "172804.980000",
        "172805.978000",
        "172806.952000",
        "172807.987000",
        "172808.942000",
        "172809.975000",
        "172810.980000",
        "172811.991000",
        "172813.004000"
      ],
      "InstanceNumber": [
        1,
        2,
        3,
        4,
        5,
        6,
        7,
        8,
        9,
        10,
        11,
        12,
        13,
        14,
        15,
        16,
        17,
        18,
        19,
        20,
        21,
        22,
        23,
        24,
        25,
        26,
        27,
        28,
        29,
        30,
        31,
        32,
        33,
        34,
        35,
        36,
        37,
        38,
        39,
        40,
        41,
        42,
        43,
        44,
        45,
        46,
        47,
        48,
        49,
        50,
        51,
        52,
        53,
        54,
        55,
        56,
        57,
        58,
        59,
        60,
        61,
        62,
        63,
        64,
        65,
        66,
        67,
        68,
        69,
        70,
        71,
        72,
        73,
        74,
        75,
        76,
        77,
        78,
        79,
        80,
        81,
        82,
        83,
        84,
        85,
        86,
        87,
        88,
        89,
        90,
        91,
        92,
        93,
        94,
        95,
        96,
        97,
        98,
        99,
        100,
        101,
        102,
        103,
        104,
        105,
        106,
        107,
        108,
        109,
        110,
        111,
        112,
        113,
        114,
        115,
        116,
        117,
        118,
        119,
        120,
        121,
        122,
        123,
        124,
        125,
        126,
        127,
        128,
        129,
        130,
        131,
        132,
        133,
        134,
        135,
        136,
        137,
        138,
        139,
        140,
        141,
        142,
        143,
        144,
        145,
        146,
        147,
        148,
        149,
        150,
        151,
        152,
        153,
        154,
        155,
        156,
        157,
