{
  "AcquisitionMatrixPE": 96,
  "AcquisitionNumber": 1,
  "BandwidthPerPixelPhaseEncode": 18.939,
  "BaseResolution": 96,
  "BodyPartExamined": "BRAIN",
  "ConsistencyInfo": "N4_VE11C_LATEST_20160120",
  "ConversionSoftware": "dcm2niix",
  "ConversionSoftwareVersion": "v1.0.20171215 (OpenJPEG build) GCC6.3.0",
  "DerivedVendorReportedEchoSpacing": 0.000550011,
  "DeviceSerialNumber": "66112",
  "DwellTime": 2.2e-06,
  "EchoTime": 0.033,
  "EchoTrainLength": 96,
  "EffectiveEchoSpacing": 0.000550011,
  "FlipAngle": 59,
  "ImageOrientationPatientDICOM": [
    0.998778,
    0.0474279,
    0.0139095,
    -0.0474506,
    0.998873,
    0.00130639
  ],
  "ImageType": [
    "ORIGINAL",
    "PRIMARY",
    "FMRI",
    "NONE",
    "ND",
    "NORM",
    "MOSAIC"
  ],
  "InPlanePhaseEncodingDirectionDICOM": "COL",
  "InstitutionAddress": "Maynard_3_Hanover_NH_US_03755",
  "InstitutionName": "Dartmouth_College_-_PBS",
  "InstitutionalDepartmentName": "Department",
  "MRAcquisitionType": "2D",
  "MagneticFieldStrength": 3,
  "Manufacturer": "Siemens",
  "ManufacturersModelName": "Prisma",
  "Modality": "MR",
  "MultibandAccelerationFactor": 4,
  "PartialFourier": 1,
  "PatientPosition": "HFS",
  "PercentPhaseFOV": 100,
  "PhaseEncodingDirection": "j-",
  "PhaseEncodingSteps": 96,
  "PhaseResolution": 1,
  "PixelBandwidth": 2365,
  "ProcedureStepDescription": "Gobbini_Matteo_1038_hyperface",
  "ProtocolName": "func_run-05_task-localizer",
  "PulseSequenceDetails": "%SiemensSeq%_ep2d_bold",
  "ReceiveCoilActiveElements": "HEA;HEP",
  "ReceiveCoilName": "Head_32",
  "ReconMatrixPE": 96,
  "RepetitionTime": 1,
  "SAR": 0.0439425,
  "ScanOptions": "FS",
  "ScanningSequence": "EP",
  "SequenceName": "_epfid2d1_96",
  "SequenceVariant": "SK",
  "SeriesDescription": "func_run-05_task-localizer",
  "SeriesNumber": 36,
  "ShimSetting": [
    4140,
    -7705,
    -7315,
    591,
    -34,
    -21,
    3,
    59
  ],
  "SliceThickness": 2.5,
  "SliceTiming": [
    0.735,
    0,
    0.49,
    0.0825,
    0.5725,
    0.1625,
    0.6525,
    0.3275,
    0.8175,
    0.4075,
    0.8975,
    0.245,
    0.735,
    0,
    0.49,
    0.0825,
    0.5725,
    0.1625,
    0.6525,
    0.3275,
    0.8175,
    0.4075,
    0.8975,
    0.245,
    0.735,
    0,
    0.49,
    0.0825,
    0.5725,
    0.1625,
    0.6525,
    0.3275,
    0.8175,
    0.4075,
    0.8975,
    0.245,
    0.735,
    0,
    0.49,
    0.0825,
    0.5725,
    0.1625,
    0.6525,
    0.3275,
    0.8175,
    0.4075,
    0.8975,
    0.245
  ],
  "SoftwareVersions": "syngo_MR_E11",
  "SpacingBetweenSlices": 2.5,
  "StationName": "AWP66112",
  "TotalReadoutTime": 0.0522511,
  "TxRefAmp": 222.057,
  "time": {
    "samples": {
      "AcquisitionNumber": [
        1,
        2,
        3,
        4,
        5,
        6,
        7,
        8,
        9,
        10,
        11,
        12,
        13,
        14,
        15,
        16,
        17,
        18,
        19,
        20,
        21,
        22,
        23,
        24,
        25,
        26,
        27,
        28,
        29,
        30,
        31,
        32,
        33,
        34,
        35,
        36,
        37,
        38,
        39,
        40,
        41,
        42,
        43,
        44,
        45,
        46,
        47,
        48,
        49,
        50,
        51,
        52,
        53,
        54,
        55,
        56,
        57,
        58,
        59,
        60,
        61,
        62,
        63,
        64,
        65,
        66,
        67,
        68,
        69,
        70,
        71,
        72,
        73,
        74,
        75,
        76,
        77,
        78,
        79,
        80,
        81,
        82,
        83,
        84,
        85,
        86,
        87,
        88,
        89,
        90,
        91,
        92,
        93,
        94,
        95,
        96,
        97,
        98,
        99,
        100,
        101,
        102,
        103,
        104,
        105,
        106,
        107,
        108,
        109,
        110,
        111,
        112,
        113,
        114,
        115,
        116,
        117,
        118,
        119,
        120,
        121,
        122,
        123,
        124,
        125,
        126,
        127,
        128,
        129,
        130,
        131,
        132,
        133,
        134,
        135,
        136,
        137,
        138,
        139,
        140,
        141,
        142,
        143,
        144,
        145,
        146,
        147,
        148,
        149,
        150,
        151,
        152,
        153,
        154,
        155,
        156,
        157,
        158,
        159,
        160,
        161,
        162,
        163,
        164,
        165,
        166,
        167,
        168,
        169,
        170,
        171,
        172,
        173,
        174,
        175,
        176,
        177,
        178,
        179,
        180,
        181,
        182,
        183,
        184,
        185,
        186,
        187,
        188,
        189,
        190,
        191,
        192,
        193,
        194,
        195,
        196,
        197,
        198,
        199,
        200,
        201,
        202,
        203,
        204,
        205,
        206,
        207,
        208,
        209,
        210,
        211,
        212,
        213,
        214,
        215,
        216,
        217,
        218,
        219,
        220,
        221,
        222,
        223,
        224,
        225,
        226,
        227,
        228,
        229,
        230,
        231,
        232,
        233,
        234,
        235,
        236
      ],
      "AcquisitionTime": [
        "173933.565000",
        "173934.565000",
        "173935.565000",
        "173936.565000",
        "173937.565000",
        "173938.565000",
        "173939.565000",
        "173940.565000",
        "173941.565000",
        "173942.565000",
        "173943.565000",
        "173944.565000",
        "173945.565000",
        "173946.565000",
        "173947.565000",
        "173948.565000",
        "173949.565000",
        "173950.565000",
        "173951.565000",
        "173952.565000",
        "173953.565000",
        "173954.565000",
        "173955.565000",
        "173956.565000",
        "173957.565000",
        "173958.565000",
        "173959.565000",
        "174000.565000",
        "174001.565000",
        "174002.565000",
        "174003.565000",
        "174004.565000",
        "174005.565000",
        "174006.565000",
        "174007.565000",
        "174008.565000",
        "174009.565000",
        "174010.565000",
        "174011.565000",
        "174012.565000",
        "174013.565000",
        "174014.565000",
        "174015.565000",
        "174016.565000",
        "174017.565000",
        "174018.565000",
        "174019.565000",
        "174020.565000",
        "174021.565000",
        "174022.565000",
        "174023.565000",
        "174024.565000",
        "174025.565000",
        "174026.565000",
        "174027.565000",
        "174028.565000",
        "174029.565000",
        "174030.565000",
        "174031.565000",
        "174032.565000",
        "174033.565000",
        "174034.565000",
        "174035.565000",
        "174036.565000",
        "174037.565000",
        "174038.565000",
        "174039.565000",
        "174040.565000",
        "174041.565000",
        "174042.565000",
        "174043.565000",
        "174044.565000",
        "174045.565000",
        "174046.565000",
        "174047.565000",
        "174048.565000",
        "174049.565000",
        "174050.565000",
        "174051.565000",
        "174052.565000",
        "174053.565000",
        "174054.565000",
        "174055.565000",
        "174056.565000",
        "174057.565000",
        "174058.565000",
        "174059.565000",
        "174100.565000",
        "174101.565000",
        "174102.565000",
        "174103.565000",
        "174104.565000",
        "174105.565000",
        "174106.565000",
        "174107.565000",
        "174108.565000",
        "174109.565000",
        "174110.565000",
        "174111.565000",
        "174112.565000",
        "174113.565000",
        "174114.565000",
        "174115.565000",
        "174116.565000",
        "174117.565000",
        "174118.565000",
        "174119.565000",
        "174120.565000",
        "174121.565000",
        "174122.565000",
        "174123.565000",
        "174124.565000",
        "174125.565000",
        "174126.565000",
        "174127.565000",
        "174128.565000",
        "174129.565000",
        "174130.565000",
        "174131.565000",
        "174132.565000",
        "174133.565000",
        "174134.565000",
        "174135.565000",
        "174136.565000",
        "174137.565000",
        "174138.565000",
        "174139.565000",
        "174140.565000",
        "174141.565000",
        "174142.565000",
        "174143.565000",
        "174144.565000",
        "174145.565000",
        "174146.565000",
        "174147.565000",
        "174148.565000",
        "174149.565000",
        "174150.565000",
        "174151.565000",
        "174152.565000",
        "174153.565000",
        "174154.565000",
        "174155.565000",
        "174156.565000",
        "174157.565000",
        "174158.565000",
        "174159.565000",
        "174200.565000",
        "174201.565000",
        "174202.565000",
        "174203.565000",
        "174204.565000",
        "174205.565000",
        "174206.565000",
        "174207.565000",
        "174208.565000",
        "174209.565000",
        "174210.565000",
        "174211.565000",
        "174212.565000",
        "174213.565000",
        "174214.565000",
        "174215.565000",
        "174216.565000",
        "174217.565000",
        "174218.565000",
        "174219.565000",
        "174220.565000",
        "174221.565000",
        "174222.565000",
        "174223.565000",
        "174224.565000",
        "174225.565000",
        "174226.565000",
        "174227.565000",
        "174228.565000",
        "174229.565000",
        "174230.565000",
        "174231.565000",
        "174232.565000",
        "174233.565000",
        "174234.565000",
        "174235.565000",
        "174236.565000",
        "174237.565000",
        "174238.565000",
        "174239.565000",
        "174240.565000",
        "174241.565000",
        "174242.565000",
        "174243.565000",
        "174244.565000",
        "174245.565000",
        "174246.565000",
        "174247.565000",
        "174248.565000",
        "174249.565000",
        "174250.565000",
        "174251.565000",
        "174252.565000",
        "174253.565000",
        "174254.565000",
        "174255.565000",
        "174256.565000",
        "174257.565000",
        "174258.565000",
        "174259.565000",
        "174300.565000",
        "174301.565000",
        "174302.565000",
        "174303.565000",
        "174304.565000",
        "174305.565000",
        "174306.565000",
        "174307.565000",
        "174308.565000",
        "174309.565000",
        "174310.565000",
        "174311.565000",
        "174312.565000",
        "174313.565000",
        "174314.565000",
        "174315.565000",
        "174316.565000",
        "174317.565000",
        "174318.565000",
        "174319.565000",
        "174320.565000",
        "174321.565000",
        "174322.565000",
        "174323.565000",
        "174324.565000",
        "174325.565000",
        "174326.565000",
        "174327.565000",
        "174328.565000"
      ],
      "ContentTime": [
        "173934.589000",
        "173935.457000",
        "173936.402000",
        "173937.376000",
        "173938.418000",
        "173939.382000",
        "173940.391000",
        "173941.389000",
        "173942.368000",
        "173943.393000",
        "173944.371000",
        "173945.399000",
        "173946.397000",
        "173947.427000",
        "173948.365000",
        "173949.377000",
        "173950.370000",
        "173951.383000",
        "173952.374000",
        "173953.350000",
        "173954.387000",
        "173955.396000",
        "173956.393000",
        "173957.419000",
        "173958.382000",
        "173959.399000",
        "174000.387000",
        "174001.366000",
        "174002.409000",
        "174003.381000",
        "174004.384000",
        "174005.380000",
        "174006.380000",
        "174007.368000",
        "174008.377000",
        "174009.378000",
        "174010.366000",
        "174011.374000",
        "174012.434000",
        "174013.416000",
        "174014.399000",
        "174015.371000",
        "174016.446000",
        "174017.374000",
        "174018.398000",
        "174019.390000",
        "174020.388000",
        "174021.405000",
        "174022.380000",
        "174023.386000",
        "174024.402000",
        "174025.386000",
        "174026.395000",
        "174027.368000",
        "174028.382000",
        "174029.393000",
        "174030.396000",
        "174031.379000",
        "174032.395000",
        "174033.378000",
        "174034.390000",
        "174035.369000",
        "174036.420000",
        "174037.392000",
        "174038.398000",
        "174039.386000",
        "174040.370000",
        "174041.398000",
        "174042.391000",
        "174043.389000",
        "174044.386000",
        "174045.427000",
        "174046.392000",
        "174047.370000",
        "174048.394000",
        "174049.424000",
        "174050.388000",
        "174051.376000",
        "174052.392000",
        "174053.385000",
        "174054.371000",
        "174055.387000",
        "174056.384000",
        "174057.403000",
        "174058.378000",
        "174059.422000",
        "174100.464000",
        "174101.389000",
        "174102.395000",
        "174103.398000",
        "174104.392000",
        "174105.387000",
        "174106.375000",
        "174107.390000",
        "174108.386000",
        "174109.428000",
        "174110.402000",
        "174111.393000",
        "174112.407000",
        "174113.385000",
        "174114.385000",
        "174115.374000",
        "174116.419000",
        "174117.396000",
        "174118.377000",
        "174119.391000",
        "174120.375000",
        "174121.389000",
        "174122.378000",
        "174123.378000",
        "174124.377000",
        "174125.387000",
        "174126.412000",
        "174127.392000",
        "174128.410000",
        "174129.396000",
        "174130.392000",
        "174131.411000",
        "174132.391000",
        "174133.393000",
        "174134.386000",
        "174135.418000",
        "174136.392000",
        "174137.413000",
        "174138.399000",
        "174139.438000",
        "174140.408000",
        "174141.390000",
        "174142.389000",
        "174143.383000",
        "174144.382000",
        "174145.394000",
        "174146.396000",
        "174147.395000",
        "174148.407000",
        "174149.409000",
        "174150.388000",
        "174151.422000",
        "174152.405000",
        "174153.394000",
        "174154.404000",
        "174155.395000",
        "174156.392000",
        "174157.402000",
        "174158.387000",
        "174159.380000",
        "174200.377000",
        "174201.431000",
        "174202.394000",
        "174203.381000",
        "174204.404000",
        "174205.428000",
        "174206.362000",
        "174207.391000",
        "174208.387000",
        "174209.389000",
        "174210.404000",
        "174211.384000",
        "174212.412000",
        "174213.409000",
        "174214.362000",
        "174215.392000",
        "174216.405000",
        "174217.398000",
        "174218.384000",
        "174219.436000",
        "174220.413000",
        "174221.401000",
        "174222.408000",
        "174223.405000",
        "174224.399000",
        "174225.410000",
        "174226.354000",
        "174227.387000",
        "174228.381000",
        "174229.397000",
        "174230.401000",
        "174231.378000",
        "174232.396000",
        "174233.390000",
        "174234.383000",
        "174235.375000",
        "174236.371000",
        "174237.387000",
        "174238.389000",
        "174239.388000",
        "174240.424000",
        "174241.390000",
        "174242.370000",
        "174243.379000",
        "174244.408000",
        "174245.391000",
        "174246.404000",
        "174247.397000",
        "174248.393000",
        "174249.388000",
        "174250.357000",
        "174251.380000",
        "174252.436000",
        "174253.373000",
        "174254.369000",
        "174255.440000",
        "174256.372000",
        "174257.456000",
        "174258.369000",
        "174259.411000",
        "174300.372000",
        "174301.375000",
        "174302.394000",
        "174303.391000",
        "174304.385000",
        "174305.385000",
        "174306.369000",
        "174307.396000",
        "174308.382000",
        "174309.426000",
        "174310.382000",
        "174311.401000",
        "174312.392000",
        "174313.386000",
        "174314.396000",
        "174315.382000",
        "174316.391000",
        "174317.389000",
        "174318.391000",
        "174319.392000",
        "174320.378000",
        "174321.373000",
        "174322.385000",
        "174323.395000",
        "174324.400000",
        "174325.391000",
        "174326.399000",
        "174327.421000",
        "174328.418000",
        "174329.425000"
      ],
      "InstanceCreationTime": [
        "173934.589000",
        "173935.457000",
        "173936.402000",
        "173937.376000",
        "173938.418000",
        "173939.382000",
        "173940.391000",
        "173941.389000",
        "173942.368000",
        "173943.393000",
        "173944.371000",
        "173945.399000",
        "173946.397000",
        "173947.427000",
        "173948.365000",
        "173949.377000",
        "173950.370000",
        "173951.383000",
        "173952.374000",
        "173953.350000",
        "173954.387000",
        "173955.396000",
        "173956.393000",
        "173957.419000",
        "173958.382000",
        "173959.399000",
        "174000.387000",
        "174001.366000",
        "174002.409000",
        "174003.381000",
        "174004.384000",
        "174005.380000",
        "174006.380000",
        "174007.368000",
        "174008.377000",
        "174009.378000",
        "174010.366000",
        "174011.374000",
        "174012.434000",
        "174013.416000",
        "174014.399000",
        "174015.371000",
        "174016.446000",
        "174017.374000",
        "174018.398000",
        "174019.390000",
        "174020.388000",
        "174021.405000",
        "174022.380000",
        "174023.386000",
        "174024.402000",
        "174025.386000",
        "174026.395000",
        "174027.368000",
        "174028.382000",
        "174029.393000",
        "174030.396000",
        "174031.379000",
        "174032.395000",
        "174033.378000",
        "174034.390000",
        "174035.369000",
        "174036.420000",
        "174037.392000",
        "174038.398000",
        "174039.386000",
        "174040.370000",
        "174041.398000",
        "174042.391000",
        "174043.389000",
        "174044.386000",
        "174045.427000",
        "174046.392000",
        "174047.370000",
        "174048.394000",
        "174049.424000",
        "174050.388000",
        "174051.376000",
        "174052.392000",
        "174053.385000",
        "174054.371000",
        "174055.387000",
        "174056.384000",
        "174057.403000",
        "174058.378000",
        "174059.422000",
        "174100.464000",
        "174101.389000",
        "174102.395000",
        "174103.398000",
        "174104.392000",
        "174105.387000",
        "174106.375000",
        "174107.390000",
        "174108.386000",
        "174109.428000",
        "174110.402000",
        "174111.393000",
        "174112.407000",
        "174113.385000",
        "174114.385000",
        "174115.374000",
        "174116.419000",
        "174117.396000",
        "174118.377000",
        "174119.391000",
        "174120.375000",
        "174121.389000",
        "174122.378000",
        "174123.378000",
        "174124.377000",
        "174125.387000",
        "174126.412000",
        "174127.392000",
        "174128.410000",
        "174129.396000",
        "174130.392000",
        "174131.411000",
        "174132.391000",
        "174133.393000",
        "174134.386000",
        "174135.418000",
        "174136.392000",
        "174137.413000",
        "174138.399000",
        "174139.438000",
        "174140.408000",
        "174141.390000",
        "174142.389000",
        "174143.383000",
        "174144.382000",
        "174145.394000",
        "174146.396000",
        "174147.395000",
        "174148.407000",
        "174149.409000",
        "174150.388000",
        "174151.422000",
        "174152.405000",
        "174153.394000",
        "174154.404000",
        "174155.395000",
        "174156.392000",
        "174157.402000",
        "174158.387000",
        "174159.380000",
        "174200.377000",
        "174201.431000",
        "174202.394000",
        "174203.381000",
        "174204.404000",
        "174205.428000",
        "174206.362000",
        "174207.391000",
        "174208.387000",
        "174209.389000",
        "174210.404000",
        "174211.384000",
        "174212.412000",
        "174213.409000",
        "174214.362000",
        "174215.392000",
        "174216.405000",
        "174217.398000",
        "174218.384000",
        "174219.436000",
        "174220.413000",
        "174221.401000",
        "174222.408000",
        "174223.405000",
        "174224.399000",
        "174225.410000",
        "174226.354000",
        "174227.387000",
        "174228.381000",
        "174229.397000",
        "174230.401000",
        "174231.378000",
        "174232.396000",
        "174233.390000",
        "174234.383000",
        "174235.375000",
        "174236.371000",
        "174237.387000",
        "174238.389000",
        "174239.388000",
        "174240.424000",
        "174241.390000",
        "174242.370000",
        "174243.379000",
        "174244.408000",
        "174245.391000",
        "174246.404000",
        "174247.397000",
        "174248.393000",
        "174249.388000",
        "174250.357000",
        "174251.380000",
        "174252.436000",
        "174253.373000",
        "174254.369000",
        "174255.440000",
        "174256.372000",
        "174257.456000",
        "174258.369000",
        "174259.411000",
        "174300.372000",
        "174301.375000",
        "174302.394000",
        "174303.391000",
        "174304.385000",
        "174305.385000",
        "174306.369000",
        "174307.396000",
        "174308.382000",
        "174309.426000",
        "174310.382000",
        "174311.401000",
        "174312.392000",
        "174313.386000",
        "174314.396000",
        "174315.382000",
        "174316.391000",
        "174317.389000",
        "174318.391000",
        "174319.392000",
        "174320.378000",
        "174321.373000",
        "174322.385000",
        "174323.395000",
        "174324.400000",
        "174325.391000",
        "174326.399000",
        "174327.421000",
        "174328.418000",
        "174329.425000"
      ],
      "InstanceNumber": [
        1,
        2,
        3,
        4,
        5,
        6,
        7,
        8,
        9,
        10,
        11,
        12,
        13,
        14,
        15,
        16,
        17,
        18,
        19,
        20,
        21,
        22,
        23,
        24,
        25,
        26,
        27,
        28,
        29,
        30,
        31,
        32,
        33,
        34,
        35,
        36,
        37,
        38,
        39,
        40,
        41,
        42,
        43,
        44,
        45,
        46,
        47,
        48,
        49,
        50,
        51,
        52,
        53,
        54,
        55,
        56,
        57,
        58,
        59,
        60,
        61,
        62,
        63,
        64,
        65,
        66,
        67,
        68,
        69,
        70,
        71,
        72,
        73,
        74,
        75,
        76,
        77,
        78,
        79,
        80,
        81,
        82,
        83,
        84,
        85,
        86,
        87,
        88,
        89,
        90,
        91,
        92,
        93,
        94,
        95,
        96,
        97,
        98,
        99,
        100,
        101,
        102,
        103,
        104,
        105,
        106,
        107,
        108,
        109,
        110,
        111,
        112,
        113,
        114,
        115,
        116,
        117,
        118,
        119,
        120,
        121,
        122,
        123,
        124,
        125,
        126,
        127,
        128,
        129,
        130,
        131,
        132,
        133,
        134,
        135,
        136,
        137,
        138,
        139,
        140,
        141,
        142,
        143,
        144,
        145,
        146,
        147,
        148,
        149,
        150,
        151,
        152,
        153,
        154,
        155,
        156,
        157,
        158,
        159,
        160,
        161,
        162,
        163,
        164,
        165,
        166,
        167,
        168,
        169,
        170,
        171,
        172,
        173,
        174,
        175,
        176,
        177,
        178,
        179,
        180,
        181,
        182,
        183,
        184,
        185,
        186,
        187,
        188,
        189,
        190,
        191,
        192,
        193,
        194,
        195,
        196,
        197,
        198,
        199,
        200,
        201,
        202,
        203,
        204,
        205,
        206,
        207,
        208,
        209,
        210,
        211,
        212,
        213,
        214,
        215,
        216,
        217,
        218,
        219,
        220,
        221,
        222,
        223,
        224,
        225,
        226,
        227,
        228,
        229,
        230,
        231,
        232,
        233,
        234,
        235,
        236
      ],
      "LargestImagePixelValue": [
        742,
        735,
        974,
        717,
        708,
        865,
        713,
        724,
        712,
        757,
        706,
        892,
        736,
        725,
        919,
        793,
        706,
        707,
        709,
        894,
        707,
        711,
        712,
        708,
        891,
        788,
        714,
        773,
        713,
        711,
        810,
        716,
        707,
        888,
        728,
        708,
        900,
        936,
        708,
        710,
        815,
        728,
        708,
        782,
        716,
        708,
        755,
        710,
        707,
        800,
        710,
        909,
        940,
        749,
        748,
        757,
        710,
        756,
        725,
        707,
        873,
        866,
        708,
        717,
        945,
        709,
        710,
        822,
        710,
        708,
        710,
        712,
        898,
        852,
        863,
        854,
        824,
        698,
        727,
        701,
        713,
        706,
        756,
        715,
        886,
        719,
        786,
        732,
        932,
        899,
        725,
        1012,
        728,
        718,
        764,
        721,
        714,
        720,
        712,
        841,
        723,
        901,
        854,
        721,
        840,
        824,
        721,
        799,
        886,
        735,
        719,
        829,
        719,
        719,
        839,
        808,
        716,
        884,
        899,
        719,
        714,
        919,
        717,
        786,
        927,
        717,
        718,
        905,
        716,
        716,
        902,
        715,
        749,
        901,
        738,
        719,
        781,
        719,
        720,
        839,
        725,
        722,
        816,
        892,
        721,
        716,
        720,
        722,
        846,
        726,
        893,
        911,
        827,
        721,
        907,
        715,
        715,
        851,
        717,
        713,
        717,
        717,
        903,
        714,
        893,
        898,
        911,
        876,
        718,
        715,
        824,
        717,
        736,
        872,
        716,
        711,
        722,
        717,
        955,
        720,
        820,
        720,
        718,
        914,
        720,
        709,
        722,
        716,
        948,
        728,
        774,
        715,
        716,
        834,
        717,
        712,
        781,
        740,
        956,
        886,
        892,
        799,
        884,
        984,
        714,
        815,
        904,
        710,
        710,
        720,
        718,
        832,
        717,
        820,
        718,
        870,
        859,
        715,
        711,
        846,
        718,
        726,
        863,
        736,
        714,
        904,
        861,
        710,
        710,
        850,
        717,
        715,
        720,
        720,
        710,
        732
      ],
      "WindowCenter": [
        345,
        345,
        346,
        343,
        343,
        346,
        345,
        345,
        345,
        346,
        345,
        347,
        345,
        345,
        347,
        345,
        344,
        345,
        345,
        347,
        345,
        346,
        346,
        345,
        347,
        346,
        345,
        346,
