{
  "AcquisitionMatrixPE": 96,
  "AcquisitionNumber": 1,
  "BandwidthPerPixelPhaseEncode": 18.939,
  "BaseResolution": 96,
  "BodyPartExamined": "BRAIN",
  "ConsistencyInfo": "N4_VE11C_LATEST_20160120",
  "ConversionSoftware": "dcm2niix",
  "ConversionSoftwareVersion": "v1.0.20171215 (OpenJPEG build) GCC6.3.0",
  "DerivedVendorReportedEchoSpacing": 0.000550011,
  "DeviceSerialNumber": "66112",
  "DwellTime": 2.2e-06,
  "EchoTime": 0.033,
  "EchoTrainLength": 96,
  "EffectiveEchoSpacing": 0.000550011,
  "FlipAngle": 59,
  "ImageOrientationPatientDICOM": [
    0.998778,
    0.0474279,
    0.0139095,
    -0.0474506,
    0.998873,
    0.00130639
  ],
  "ImageType": [
    "ORIGINAL",
    "PRIMARY",
    "FMRI",
    "NONE",
    "ND",
    "NORM",
    "MOSAIC"
  ],
  "InPlanePhaseEncodingDirectionDICOM": "COL",
  "InstitutionAddress": "Maynard_3_Hanover_NH_US_03755",
  "InstitutionName": "Dartmouth_College_-_PBS",
  "InstitutionalDepartmentName": "Department",
  "MRAcquisitionType": "2D",
  "MagneticFieldStrength": 3,
  "Manufacturer": "Siemens",
  "ManufacturersModelName": "Prisma",
  "Modality": "MR",
  "MultibandAccelerationFactor": 4,
  "PartialFourier": 1,
  "PatientPosition": "HFS",
  "PercentPhaseFOV": 100,
  "PhaseEncodingDirection": "j-",
  "PhaseEncodingSteps": 96,
  "PhaseResolution": 1,
  "PixelBandwidth": 2365,
  "ProcedureStepDescription": "Gobbini_Matteo_1038_hyperface",
  "ProtocolName": "func_run-06_task-visualmemory",
  "PulseSequenceDetails": "%SiemensSeq%_ep2d_bold",
  "ReceiveCoilActiveElements": "HEA;HEP",
  "ReceiveCoilName": "Head_32",
  "ReconMatrixPE": 96,
  "RepetitionTime": 1,
  "SAR": 0.0440479,
  "ScanOptions": "FS",
  "ScanningSequence": "EP",
  "SequenceName": "_epfid2d1_96",
  "SequenceVariant": "SK",
  "SeriesDescription": "func_run-06_task-visualmemory",
  "SeriesNumber": 43,
  "ShimSetting": [
    4140,
    -7705,
    -7315,
    591,
    -34,
    -21,
    3,
    59
  ],
  "SliceThickness": 2.5,
  "SliceTiming": [
    0.735,
    0,
    0.49,
    0.0825,
    0.5725,
    0.1625,
    0.6525,
    0.3275,
    0.8175,
    0.4075,
    0.8975,
    0.245,
    0.735,
    0,
    0.49,
    0.0825,
    0.5725,
    0.1625,
    0.6525,
    0.3275,
    0.8175,
    0.4075,
    0.8975,
    0.245,
    0.735,
    0,
    0.49,
    0.0825,
    0.5725,
    0.1625,
    0.6525,
    0.3275,
    0.8175,
    0.4075,
    0.8975,
    0.245,
    0.735,
    0,
    0.49,
    0.0825,
    0.5725,
    0.1625,
    0.6525,
    0.3275,
    0.8175,
    0.4075,
    0.8975,
    0.245
  ],
  "SoftwareVersions": "syngo_MR_E11",
  "SpacingBetweenSlices": 2.5,
  "StationName": "AWP66112",
  "TotalReadoutTime": 0.0522511,
  "TxRefAmp": 222.057,
  "time": {
    "samples": {
      "AcquisitionNumber": [
        1,
        2,
        3,
        4,
        5,
        6,
        7,
        8,
        9,
        10,
        11,
        12,
        13,
        14,
        15,
        16,
        17,
        18,
        19,
        20,
        21,
        22,
        23,
        24,
        25,
        26,
        27,
        28,
        29,
        30,
        31,
        32,
        33,
        34,
        35,
        36,
        37,
        38,
        39,
        40,
        41,
        42,
        43,
        44,
        45,
        46,
        47,
        48,
        49,
        50,
        51,
        52,
        53,
        54,
        55,
        56,
        57,
        58,
        59,
        60,
        61,
        62,
        63,
        64,
        65,
        66,
        67,
        68,
        69,
        70,
        71,
        72,
        73,
        74,
        75,
        76,
        77,
        78,
        79,
        80,
        81,
        82,
        83,
        84,
        85,
        86,
        87,
        88,
        89,
        90,
        91,
        92,
        93,
        94,
        95,
        96,
        97,
        98,
        99,
        100,
        101,
        102,
        103,
        104,
        105,
        106,
        107,
        108,
        109,
        110,
        111,
        112,
        113,
        114,
        115,
        116,
        117,
        118,
        119,
        120,
        121,
        122,
        123,
        124,
        125,
        126,
        127,
        128,
        129,
        130,
        131,
        132,
        133,
        134,
        135,
        136,
        137,
        138,
        139,
        140,
        141,
        142,
        143,
        144,
        145,
        146,
        147,
        148,
        149,
        150,
        151,
        152,
        153,
        154,
        155,
        156,
        157,
        158,
        159,
        160,
        161,
        162,
        163,
        164,
        165,
        166,
        167,
        168,
        169,
        170,
        171,
        172,
        173,
        174,
        175,
        176,
        177,
        178,
        179,
        180,
        181,
        182,
        183,
        184,
        185,
        186,
        187,
        188,
        189,
        190,
        191,
        192,
        193,
        194,
        195,
        196,
        197,
        198,
        199,
        200,
        201,
        202,
        203,
        204,
        205,
        206,
        207,
        208,
        209,
        210,
        211,
        212,
        213,
        214,
        215,
        216,
        217,
        218,
        219,
        220,
        221,
        222,
        223,
        224,
        225,
        226,
        227,
        228,
        229,
        230,
        231,
        232,
        233,
        234,
        235,
        236,
        237,
        238,
        239,
        240,
        241,
        242,
        243,
        244,
        245,
        246,
        247,
        248,
        249,
        250,
        251,
        252,
        253,
        254,
        255,
        256,
        257,
        258,
        259,
        260,
        261,
        262,
        263,
        264,
        265,
        266,
        267,
        268,
        269,
        270,
        271,
        272,
        273,
        274,
        275,
        276,
        277,
        278,
        279,
        280,
        281,
        282,
        283,
        284,
        285,
        286,
        287,
        288
      ],
      "AcquisitionTime": [
        "174403.095000",
        "174404.095000",
        "174405.095000",
        "174406.095000",
        "174407.095000",
        "174408.095000",
        "174409.095000",
        "174410.095000",
        "174411.095000",
        "174412.095000",
        "174413.095000",
        "174414.095000",
        "174415.095000",
        "174416.095000",
        "174417.095000",
        "174418.095000",
        "174419.095000",
        "174420.095000",
        "174421.095000",
        "174422.095000",
        "174423.095000",
        "174424.095000",
        "174425.095000",
        "174426.095000",
        "174427.095000",
        "174428.095000",
        "174429.095000",
        "174430.095000",
        "174431.095000",
        "174432.095000",
        "174433.095000",
        "174434.095000",
        "174435.095000",
        "174436.095000",
        "174437.095000",
        "174438.095000",
        "174439.095000",
        "174440.095000",
        "174441.095000",
        "174442.095000",
        "174443.095000",
        "174444.095000",
        "174445.095000",
        "174446.095000",
        "174447.095000",
        "174448.095000",
        "174449.095000",
        "174450.095000",
        "174451.095000",
        "174452.095000",
        "174453.095000",
        "174454.095000",
        "174455.095000",
        "174456.095000",
        "174457.095000",
        "174458.095000",
        "174459.095000",
        "174500.095000",
        "174501.095000",
        "174502.095000",
        "174503.095000",
        "174504.095000",
        "174505.095000",
        "174506.095000",
        "174507.095000",
        "174508.095000",
        "174509.095000",
        "174510.095000",
        "174511.095000",
        "174512.095000",
        "174513.095000",
        "174514.095000",
        "174515.095000",
        "174516.095000",
        "174517.095000",
        "174518.095000",
        "174519.095000",
        "174520.095000",
        "174521.095000",
        "174522.095000",
        "174523.095000",
        "174524.095000",
        "174525.095000",
        "174526.095000",
        "174527.095000",
        "174528.095000",
        "174529.095000",
        "174530.095000",
        "174531.095000",
        "174532.095000",
        "174533.095000",
        "174534.095000",
        "174535.095000",
        "174536.095000",
        "174537.095000",
        "174538.095000",
        "174539.095000",
        "174540.095000",
        "174541.095000",
        "174542.095000",
        "174543.095000",
        "174544.095000",
        "174545.095000",
        "174546.095000",
        "174547.095000",
        "174548.095000",
        "174549.095000",
        "174550.095000",
        "174551.095000",
        "174552.095000",
        "174553.095000",
        "174554.095000",
        "174555.095000",
        "174556.095000",
        "174557.095000",
        "174558.095000",
        "174559.095000",
        "174600.095000",
        "174601.095000",
        "174602.095000",
        "174603.095000",
        "174604.095000",
        "174605.095000",
        "174606.095000",
        "174607.095000",
        "174608.095000",
        "174609.095000",
        "174610.095000",
        "174611.095000",
        "174612.095000",
        "174613.095000",
        "174614.095000",
        "174615.095000",
        "174616.095000",
        "174617.095000",
        "174618.095000",
        "174619.095000",
        "174620.095000",
        "174621.095000",
        "174622.095000",
        "174623.095000",
        "174624.095000",
        "174625.095000",
        "174626.095000",
        "174627.095000",
        "174628.095000",
        "174629.095000",
        "174630.095000",
        "174631.095000",
        "174632.095000",
        "174633.095000",
        "174634.095000",
        "174635.095000",
        "174636.095000",
        "174637.095000",
        "174638.095000",
        "174639.095000",
        "174640.095000",
        "174641.095000",
        "174642.095000",
        "174643.095000",
        "174644.095000",
        "174645.095000",
        "174646.095000",
        "174647.095000",
        "174648.095000",
        "174649.095000",
        "174650.095000",
        "174651.095000",
        "174652.095000",
        "174653.095000",
        "174654.095000",
        "174655.095000",
        "174656.095000",
        "174657.095000",
        "174658.095000",
        "174659.095000",
        "174700.095000",
        "174701.095000",
        "174702.095000",
        "174703.095000",
        "174704.095000",
        "174705.095000",
        "174706.095000",
        "174707.095000",
        "174708.095000",
        "174709.095000",
        "174710.095000",
        "174711.095000",
        "174712.095000",
        "174713.095000",
        "174714.095000",
        "174715.095000",
        "174716.095000",
        "174717.095000",
        "174718.095000",
        "174719.095000",
        "174720.095000",
        "174721.095000",
        "174722.095000",
        "174723.095000",
        "174724.095000",
        "174725.095000",
        "174726.095000",
        "174727.095000",
        "174728.095000",
        "174729.095000",
        "174730.095000",
        "174731.095000",
        "174732.095000",
        "174733.095000",
        "174734.095000",
        "174735.095000",
        "174736.095000",
        "174737.095000",
        "174738.095000",
        "174739.095000",
        "174740.095000",
        "174741.095000",
        "174742.095000",
        "174743.095000",
        "174744.095000",
        "174745.095000",
        "174746.095000",
        "174747.095000",
        "174748.095000",
        "174749.095000",
        "174750.095000",
        "174751.095000",
        "174752.095000",
        "174753.095000",
        "174754.095000",
        "174755.095000",
        "174756.095000",
        "174757.095000",
        "174758.095000",
        "174759.095000",
        "174800.095000",
        "174801.095000",
        "174802.095000",
        "174803.095000",
        "174804.095000",
        "174805.095000",
        "174806.095000",
        "174807.095000",
        "174808.095000",
        "174809.095000",
        "174810.095000",
        "174811.095000",
        "174812.095000",
        "174813.095000",
        "174814.095000",
        "174815.095000",
        "174816.095000",
        "174817.095000",
        "174818.095000",
        "174819.095000",
        "174820.095000",
        "174821.095000",
        "174822.095000",
        "174823.095000",
        "174824.095000",
        "174825.095000",
        "174826.095000",
        "174827.095000",
        "174828.095000",
        "174829.095000",
        "174830.095000",
        "174831.095000",
        "174832.095000",
        "174833.095000",
        "174834.095000",
        "174835.095000",
        "174836.095000",
        "174837.095000",
        "174838.095000",
        "174839.095000",
        "174840.095000",
        "174841.095000",
        "174842.095000",
        "174843.095000",
        "174844.095000",
        "174845.095000",
        "174846.095000",
        "174847.095000",
        "174848.095000",
        "174849.095000",
        "174850.095000"
      ],
      "ContentTime": [
        "174404.048000",
        "174404.865000",
        "174405.900000",
        "174406.897000",
        "174407.895000",
        "174408.887000",
        "174409.887000",
        "174410.859000",
        "174411.960000",
        "174412.885000",
        "174413.888000",
        "174414.883000",
        "174415.904000",
        "174416.883000",
        "174417.886000",
        "174418.869000",
        "174419.883000",
        "174420.880000",
        "174421.909000",
        "174422.907000",
        "174423.886000",
        "174424.894000",
        "174425.877000",
        "174426.876000",
        "174427.885000",
        "174428.928000",
        "174429.886000",
        "174430.884000",
        "174431.889000",
        "174432.872000",
        "174433.938000",
        "174434.879000",
        "174435.891000",
        "174436.881000",
        "174437.863000",
        "174438.862000",
        "174439.868000",
        "174440.875000",
        "174441.878000",
        "174442.885000",
        "174443.889000",
        "174444.928000",
        "174445.890000",
        "174446.883000",
        "174447.877000",
        "174448.899000",
        "174449.859000",
        "174450.881000",
        "174451.891000",
        "174452.878000",
        "174453.916000",
        "174454.889000",
        "174455.870000",
        "174456.880000",
        "174457.931000",
        "174458.862000",
        "174459.869000",
        "174500.883000",
        "174501.893000",
        "174502.868000",
        "174503.891000",
        "174504.896000",
        "174505.899000",
        "174506.886000",
        "174507.906000",
        "174508.963000",
        "174509.886000",
        "174510.880000",
        "174511.901000",
        "174512.881000",
        "174513.895000",
        "174514.875000",
        "174515.903000",
        "174516.871000",
        "174517.874000",
        "174518.881000",
        "174519.882000",
        "174520.866000",
        "174521.867000",
        "174522.875000",
        "174523.886000",
        "174524.862000",
        "174525.861000",
        "174526.865000",
        "174527.888000",
        "174528.876000",
        "174529.879000",
        "174530.892000",
        "174531.888000",
        "174532.905000",
        "174533.876000",
        "174534.883000",
        "174535.879000",
        "174536.901000",
        "174537.898000",
        "174538.868000",
        "174539.938000",
        "174540.894000",
        "174541.881000",
        "174542.899000",
        "174543.880000",
        "174544.876000",
        "174545.914000",
        "174546.866000",
        "174547.868000",
        "174548.928000",
        "174549.892000",
        "174550.875000",
        "174551.878000",
        "174552.888000",
        "174553.878000",
        "174554.894000",
        "174555.898000",
        "174556.895000",
        "174557.874000",
        "174558.869000",
        "174559.928000",
        "174600.904000",
        "174601.865000",
        "174602.931000",
        "174603.922000",
        "174604.874000",
        "174605.905000",
        "174606.877000",
        "174607.874000",
        "174608.902000",
        "174609.871000",
        "174610.918000",
        "174611.900000",
        "174612.896000",
        "174613.882000",
        "174614.896000",
        "174615.891000",
        "174616.918000",
        "174617.911000",
        "174618.910000",
        "174619.877000",
        "174620.904000",
        "174621.895000",
        "174622.885000",
        "174623.899000",
        "174624.885000",
        "174625.894000",
        "174626.882000",
        "174627.907000",
        "174628.900000",
        "174629.893000",
        "174630.869000",
        "174631.891000",
        "174632.896000",
        "174633.886000",
        "174634.898000",
        "174635.897000",
        "174636.885000",
        "174637.903000",
        "174638.887000",
        "174639.868000",
        "174640.888000",
        "174641.930000",
        "174642.887000",
        "174643.887000",
        "174644.897000",
        "174645.877000",
        "174646.877000",
        "174647.871000",
        "174648.889000",
        "174649.865000",
        "174650.924000",
        "174651.880000",
        "174652.931000",
        "174653.930000",
        "174654.900000",
        "174655.876000",
        "174656.885000",
        "174657.877000",
        "174658.906000",
        "174659.899000",
        "174700.904000",
        "174701.883000",
        "174702.891000",
        "174703.874000",
        "174704.890000",
        "174705.892000",
        "174706.878000",
        "174707.940000",
        "174708.890000",
        "174709.884000",
        "174710.884000",
        "174711.862000",
        "174712.936000",
        "174713.877000",
        "174714.877000",
        "174715.856000",
        "174716.924000",
        "174717.912000",
        "174718.901000",
        "174719.884000",
        "174720.893000",
        "174721.895000",
        "174722.903000",
        "174723.876000",
        "174724.873000",
        "174725.864000",
        "174726.911000",
        "174727.868000",
        "174728.939000",
        "174729.871000",
        "174730.899000",
        "174731.895000",
        "174732.906000",
        "174733.888000",
        "174734.907000",
        "174735.862000",
        "174736.890000",
        "174737.870000",
        "174738.867000",
        "174739.905000",
        "174740.905000",
        "174741.889000",
        "174742.877000",
        "174743.920000",
        "174744.916000",
        "174745.889000",
        "174746.890000",
        "174747.916000",
        "174748.894000",
        "174749.867000",
        "174750.897000",
        "174751.868000",
        "174752.879000",
        "174753.898000",
        "174754.905000",
        "174755.908000",
        "174756.901000",
        "174757.852000",
        "174758.873000",
        "174759.884000",
        "174800.899000",
        "174801.888000",
        "174802.895000",
        "174803.892000",
        "174804.947000",
        "174805.917000",
        "174806.895000",
        "174807.900000",
        "174808.895000",
        "174809.904000",
        "174810.899000",
        "174811.888000",
        "174812.876000",
        "174813.914000",
        "174814.889000",
        "174815.896000",
        "174816.897000",
        "174817.885000",
        "174818.877000",
        "174819.899000",
        "174820.891000",
        "174821.893000",
        "174822.884000",
        "174823.899000",
        "174824.889000",
        "174825.893000",
        "174826.879000",
        "174827.885000",
        "174828.889000",
        "174829.899000",
        "174830.916000",
        "174831.852000",
        "174832.926000",
        "174833.892000",
        "174834.853000",
        "174835.897000",
        "174836.889000",
        "174837.902000",
        "174838.870000",
        "174839.868000",
        "174840.876000",
        "174841.882000",
        "174842.903000",
        "174843.893000",
        "174844.866000",
        "174845.873000",
        "174846.896000",
        "174847.882000",
        "174848.919000",
        "174849.912000",
        "174850.920000"
      ],
      "InstanceCreationTime": [
        "174404.048000",
        "174404.865000",
        "174405.900000",
        "174406.897000",
        "174407.895000",
        "174408.887000",
        "174409.887000",
        "174410.859000",
        "174411.960000",
        "174412.885000",
        "174413.888000",
        "174414.883000",
        "174415.904000",
        "174416.883000",
        "174417.886000",
        "174418.869000",
        "174419.883000",
        "174420.880000",
        "174421.909000",
        "174422.907000",
        "174423.886000",
        "174424.894000",
        "174425.877000",
        "174426.876000",
        "174427.885000",
        "174428.928000",
        "174429.886000",
        "174430.884000",
        "174431.889000",
        "174432.872000",
        "174433.938000",
        "174434.879000",
        "174435.891000",
        "174436.881000",
        "174437.863000",
        "174438.862000",
        "174439.868000",
        "174440.875000",
        "174441.878000",
        "174442.885000",
        "174443.889000",
        "174444.928000",
        "174445.890000",
        "174446.883000",
        "174447.877000",
        "174448.899000",
        "174449.859000",
        "174450.881000",
        "174451.891000",
        "174452.878000",
        "174453.916000",
        "174454.889000",
        "174455.870000",
        "174456.880000",
        "174457.931000",
        "174458.862000",
        "174459.869000",
        "174500.883000",
        "174501.893000",
        "174502.868000",
        "174503.891000",
        "174504.896000",
        "174505.899000",
        "174506.886000",
        "174507.906000",
        "174508.963000",
        "174509.886000",
        "174510.880000",
        "174511.901000",
        "174512.881000",
        "174513.895000",
        "174514.875000",
        "174515.903000",
        "174516.871000",
        "174517.874000",
        "174518.881000",
        "174519.882000",
        "174520.866000",
        "174521.867000",
        "174522.875000",
        "174523.886000",
        "174524.862000",
        "174525.861000",
        "174526.865000",
        "174527.888000",
        "174528.876000",
        "174529.879000",
        "174530.892000",
        "174531.888000",
        "174532.905000",
        "174533.876000",
        "174534.883000",
        "174535.879000",
        "174536.901000",
        "174537.898000",
        "174538.868000",
        "174539.938000",
        "174540.894000",
        "174541.881000",
        "174542.899000",
        "174543.880000",
        "174544.876000",
        "174545.914000",
        "174546.866000",
        "174547.868000",
        "174548.928000",
        "174549.892000",
        "174550.875000",
        "174551.878000",
        "174552.888000",
        "174553.878000",
        "174554.894000",
        "174555.898000",
        "174556.895000",
        "174557.874000",
        "174558.869000",
        "174559.928000",
        "174600.904000",
        "174601.865000",
        "174602.931000",
        "174603.922000",
        "174604.874000",
        "174605.905000",
        "174606.877000",
        "174607.874000",
        "174608.902000",
        "174609.871000",
        "174610.918000",
        "174611.900000",
        "174612.896000",
        "174613.882000",
        "174614.896000",
        "174615.891000",
        "174616.918000",
        "174617.911000",
        "174618.910000",
        "174619.877000",
        "174620.904000",
        "174621.895000",
        "174622.885000",
        "174623.899000",
        "174624.885000",
        "174625.894000",
        "174626.882000",
        "174627.907000",
        "174628.900000",
        "174629.893000",
        "174630.869000",
        "174631.891000",
        "174632.896000",
        "174633.886000",
        "174634.898000",
        "174635.897000",
        "174636.885000",
        "174637.903000",
        "174638.887000",
        "174639.868000",
        "174640.888000",
        "174641.930000",
        "174642.887000",
        "174643.887000",
        "174644.897000",
        "174645.877000",
        "174646.877000",
        "174647.871000",
        "174648.889000",
        "174649.865000",
        "174650.924000",
        "174651.880000",
        "174652.931000",
        "174653.930000",
        "174654.900000",
        "174655.876000",
        "174656.885000",
        "174657.877000",
        "174658.906000",
        "174659.899000",
        "174700.904000",
        "174701.883000",
        "174702.891000",
        "174703.874000",
        "174704.890000",
        "174705.892000",
        "174706.878000",
        "174707.940000",
        "174708.890000",
        "174709.884000",
        "174710.884000",
        "174711.862000",
        "174712.936000",
        "174713.877000",
        "174714.877000",
        "174715.856000",
        "174716.924000",
        "174717.912000",
        "174718.901000",
        "174719.884000",
        "174720.893000",
        "174721.895000",
        "174722.903000",
        "174723.876000",
        "174724.873000",
        "174725.864000",
        "174726.911000",
        "174727.868000",
        "174728.939000",
        "174729.871000",
        "174730.899000",
        "174731.895000",
        "174732.906000",
        "174733.888000",
        "174734.907000",
        "174735.862000",
        "174736.890000",
        "174737.870000",
        "174738.867000",
        "174739.905000",
        "174740.905000",
        "174741.889000",
        "174742.877000",
        "174743.920000",
        "174744.916000",
        "174745.889000",
        "174746.890000",
        "174747.916000",
        "174748.894000",
        "174749.867000",
        "174750.897000",
        "174751.868000",
        "174752.879000",
        "174753.898000",
        "174754.905000",
        "174755.908000",
        "174756.901000",
        "174757.852000",
        "174758.873000",
        "174759.884000",
        "174800.899000",
        "174801.888000",
        "174802.895000",
        "174803.892000",
        "174804.947000",
        "174805.917000",
        "174806.895000",
        "174807.900000",
        "174808.895000",
        "174809.904000",
        "174810.899000",
        "174811.888000",
        "174812.876000",
        "174813.914000",
        "174814.889000",
        "174815.896000",
        "174816.897000",
        "174817.885000",
        "174818.877000",
        "174819.899000",
        "174820.891000",
        "174821.893000",
        "174822.884000",
        "174823.899000",
        "174824.889000",
        "174825.893000",
        "174826.879000",
        "174827.885000",
        "174828.889000",
        "174829.899000",
        "174830.916000",
        "174831.852000",
        "174832.926000",
        "174833.892000",
        "174834.853000",
        "174835.897000",
        "174836.889000",
        "174837.902000",
        "174838.870000",
        "174839.868000",
        "174840.876000",
        "174841.882000",
        "174842.903000",
        "174843.893000",
        "174844.866000",
        "174845.873000",
        "174846.896000",
        "174847.882000",
        "174848.919000",
        "174849.912000",
        "174850.920000"
      ],
      "InstanceNumber": [
        1,
        2,
        3,
        4,
        5,
        6,
        7,
        8,
        9,
        10,
        11,
        12,
        13,
        14,
        15,
        16,
        17,
        18,
        19,
        20,
        21,
        22,
        23,
        24,
        25,
        26,
        27,
        28,
        29,
        30,
        31,
        32,
        33,
        34,
        35,
        36,
        37,
        38,
        39,
        40,
        41,
        42,
        43,
        44,
        45,
        46,
        47,
        48,
        49,
        50,
        51,
        52,
        53,
        54,
        55,
        56,
        57,
        58,
        59,
        60,
        61,
        62,
        63,
        64,
        65,
        66,
        67,
        68,
        69,
        70,
        71,
        72,
        73,
        74,
        75,
        76,
        77,
        78,
        79,
        80,
        81,
        82,
        83,
        84,
        85,
        86,
        87,
        88,
        89,
        90,
        91,
        92,
        93,
        94,
        95,
        96,
        97,
        98,
        99,
        100,
        101,
        102,
        103,
        104,
        105,
        106,
        107,
        108,
        109,
        110,
        111,
        112,
        113,
        114,
        115,
        116,
        117,
        118,
        119,
        120,
        121,
        122,
        123,
        124,
        125,
        126,
        127,
        128,
        129,
        130,
        131,
        132,
        133,
        134,
        135,
        136,
        137,
        138,
        139,
        140,
        141,
        142,
        143,
        144,
        145,
        146,
        147,
        148,
        149,
        150,
        151,
        152,
        153,
        154,
