{
  "AcquisitionMatrixPE": 96,
  "AcquisitionNumber": 1,
  "BandwidthPerPixelPhaseEncode": 18.939,
  "BaseResolution": 96,
  "BodyPartExamined": "BRAIN",
  "ConsistencyInfo": "N4_VE11C_LATEST_20160120",
  "ConversionSoftware": "dcm2niix",
  "ConversionSoftwareVersion": "v1.0.20171215 (OpenJPEG build) GCC6.3.0",
  "DerivedVendorReportedEchoSpacing": 0.000550011,
  "DeviceSerialNumber": "66112",
  "DwellTime": 2.2e-06,
  "EchoTime": 0.033,
  "EchoTrainLength": 96,
  "EffectiveEchoSpacing": 0.000550011,
  "FlipAngle": 59,
  "ImageOrientationPatientDICOM": [
    0.999287,
    0.0340023,
    -0.0164387,
    -0.0359436,
    0.989843,
    -0.137547
  ],
  "ImageType": [
    "ORIGINAL",
    "PRIMARY",
    "FMRI",
    "NONE",
    "ND",
    "NORM",
    "MOSAIC"
  ],
  "InPlanePhaseEncodingDirectionDICOM": "COL",
  "InstitutionAddress": "Maynard_3_Hanover_NH_US_03755",
  "InstitutionName": "Dartmouth_College_-_PBS",
  "InstitutionalDepartmentName": "Department",
  "MRAcquisitionType": "2D",
  "MagneticFieldStrength": 3,
  "Manufacturer": "Siemens",
  "ManufacturersModelName": "Prisma",
  "Modality": "MR",
  "MultibandAccelerationFactor": 4,
  "PatientPosition": "HFS",
  "PercentPhaseFOV": 100,
  "PhaseEncodingDirection": "j-",
  "PhaseEncodingSteps": 96,
  "PhaseResolution": 1,
  "PixelBandwidth": 2365,
  "ProcedureStepDescription": "Gobbini_Matteo_1038_hyperface",
  "ProtocolName": "func_run-08_task-visualmemory",
  "PulseSequenceDetails": "%SiemensSeq%_ep2d_bold",
  "ReceiveCoilActiveElements": "HEA;HEP",
  "ReceiveCoilName": "Head_32",
  "ReconMatrixPE": 96,
  "RepetitionTime": 1,
  "SAR": 0.0518448,
  "ScanOptions": "FS",
  "ScanningSequence": "EP",
  "SequenceName": "_epfid2d1_96",
  "SequenceVariant": "SK",
  "SeriesDescription": "func_run-08_task-visualmemory",
  "SeriesNumber": 57,
  "ShimSetting": [
    4146,
    -7683,
    -7289,
    532,
    -29,
    16,
    66,
    106
  ],
  "SliceThickness": 2.5,
  "SliceTiming": [
    0.735,
    0,
    0.49,
    0.0825,
    0.5725,
    0.165,
    0.655,
    0.3275,
    0.8175,
    0.41,
    0.9,
    0.245,
    0.735,
    0,
    0.49,
    0.0825,
    0.5725,
    0.165,
    0.655,
    0.3275,
    0.8175,
    0.41,
    0.9,
    0.245,
    0.735,
    0,
    0.49,
    0.0825,
    0.5725,
    0.165,
    0.655,
    0.3275,
    0.8175,
    0.41,
    0.9,
    0.245,
    0.735,
    0,
    0.49,
    0.0825,
    0.5725,
    0.165,
    0.655,
    0.3275,
    0.8175,
    0.41,
    0.9,
    0.245
  ],
  "SoftwareVersions": "syngo_MR_E11",
  "SpacingBetweenSlices": 2.5,
  "StationName": "AWP66112",
  "TotalReadoutTime": 0.0522511,
  "TxRefAmp": 244.909,
  "time": {
    "samples": {
      "AcquisitionNumber": [
        1,
        2,
        3,
        4,
        5,
        6,
        7,
        8,
        9,
        10,
        11,
        12,
        13,
        14,
        15,
        16,
        17,
        18,
        19,
        20,
        21,
        22,
        23,
        24,
        25,
        26,
        27,
        28,
        29,
        30,
        31,
        32,
        33,
        34,
        35,
        36,
        37,
        38,
        39,
        40,
        41,
        42,
        43,
        44,
        45,
        46,
        47,
        48,
        49,
        50,
        51,
        52,
        53,
        54,
        55,
        56,
        57,
        58,
        59,
        60,
        61,
        62,
        63,
        64,
        65,
        66,
        67,
        68,
        69,
        70,
        71,
        72,
        73,
        74,
        75,
        76,
        77,
        78,
        79,
        80,
        81,
        82,
        83,
        84,
        85,
        86,
        87,
        88,
        89,
        90,
        91,
        92,
        93,
        94,
        95,
        96,
        97,
        98,
        99,
        100,
        101,
        102,
        103,
        104,
        105,
        106,
        107,
        108,
        109,
        110,
        111,
        112,
        113,
        114,
        115,
        116,
        117,
        118,
        119,
        120,
        121,
        122,
        123,
        124,
        125,
        126,
        127,
        128,
        129,
        130,
        131,
        132,
        133,
        134,
        135,
        136,
        137,
        138,
        139,
        140,
        141,
        142,
        143,
        144,
        145,
        146,
        147,
        148,
        149,
        150,
        151,
        152,
        153,
        154,
        155,
        156,
        157,
        158,
        159,
        160,
        161,
        162,
        163,
        164,
        165,
        166,
        167,
        168,
        169,
        170,
        171,
        172,
        173,
        174,
        175,
        176,
        177,
        178,
        179,
        180,
        181,
        182,
        183,
        184,
        185,
        186,
        187,
        188,
        189,
        190,
        191,
        192,
        193,
        194,
        195,
        196,
        197,
        198,
        199,
        200,
        201,
        202,
        203,
        204,
        205,
        206,
        207,
        208,
        209,
        210,
        211,
        212,
        213,
        214,
        215,
        216,
        217,
        218,
        219,
        220,
        221,
        222,
        223,
        224,
        225,
        226,
        227,
        228,
        229,
        230,
        231,
        232,
        233,
        234,
        235,
        236,
        237,
        238,
        239,
        240,
        241,
        242,
        243,
        244,
        245,
        246,
        247,
        248,
        249,
        250,
        251,
        252,
        253,
        254,
        255,
        256,
        257,
        258,
        259,
        260,
        261,
        262,
        263,
        264,
        265,
        266,
        267,
        268,
        269,
        270,
        271,
        272,
        273,
        274,
        275,
        276,
        277,
        278,
        279,
        280,
        281,
        282,
        283,
        284,
        285,
        286,
        287,
        288
      ],
      "AcquisitionTime": [
        "194826.190000",
        "194827.190000",
        "194828.190000",
        "194829.190000",
        "194830.190000",
        "194831.190000",
        "194832.190000",
        "194833.190000",
        "194834.190000",
        "194835.190000",
        "194836.190000",
        "194837.190000",
        "194838.190000",
        "194839.190000",
        "194840.190000",
        "194841.190000",
        "194842.190000",
        "194843.190000",
        "194844.190000",
        "194845.190000",
        "194846.190000",
        "194847.190000",
        "194848.190000",
        "194849.190000",
        "194850.190000",
        "194851.190000",
        "194852.190000",
        "194853.190000",
        "194854.190000",
        "194855.190000",
        "194856.190000",
        "194857.190000",
        "194858.190000",
        "194859.190000",
        "194900.190000",
        "194901.190000",
        "194902.190000",
        "194903.190000",
        "194904.190000",
        "194905.190000",
        "194906.190000",
        "194907.190000",
        "194908.190000",
        "194909.190000",
        "194910.190000",
        "194911.190000",
        "194912.190000",
        "194913.190000",
        "194914.190000",
        "194915.190000",
        "194916.190000",
        "194917.190000",
        "194918.190000",
        "194919.190000",
        "194920.190000",
        "194921.190000",
        "194922.190000",
        "194923.190000",
        "194924.190000",
        "194925.190000",
        "194926.190000",
        "194927.190000",
        "194928.190000",
        "194929.190000",
        "194930.190000",
        "194931.190000",
        "194932.190000",
        "194933.190000",
        "194934.190000",
        "194935.190000",
        "194936.190000",
        "194937.190000",
        "194938.190000",
        "194939.190000",
        "194940.190000",
        "194941.190000",
        "194942.190000",
        "194943.190000",
        "194944.190000",
        "194945.190000",
        "194946.190000",
        "194947.190000",
        "194948.190000",
        "194949.190000",
        "194950.190000",
        "194951.190000",
        "194952.190000",
        "194953.190000",
        "194954.190000",
        "194955.190000",
        "194956.190000",
        "194957.190000",
        "194958.190000",
        "194959.190000",
        "195000.190000",
        "195001.190000",
        "195002.190000",
        "195003.190000",
        "195004.190000",
        "195005.190000",
        "195006.190000",
        "195007.190000",
        "195008.190000",
        "195009.190000",
        "195010.190000",
        "195011.190000",
        "195012.190000",
        "195013.190000",
        "195014.190000",
        "195015.190000",
        "195016.190000",
        "195017.190000",
        "195018.190000",
        "195019.190000",
        "195020.190000",
        "195021.190000",
        "195022.190000",
        "195023.190000",
        "195024.190000",
        "195025.190000",
        "195026.190000",
        "195027.190000",
        "195028.190000",
        "195029.190000",
        "195030.190000",
        "195031.190000",
        "195032.190000",
        "195033.190000",
        "195034.190000",
        "195035.190000",
        "195036.190000",
        "195037.190000",
        "195038.190000",
        "195039.190000",
        "195040.190000",
        "195041.190000",
        "195042.190000",
        "195043.190000",
        "195044.190000",
        "195045.190000",
        "195046.190000",
        "195047.190000",
        "195048.190000",
        "195049.190000",
        "195050.190000",
        "195051.190000",
        "195052.190000",
        "195053.190000",
        "195054.190000",
        "195055.190000",
        "195056.190000",
        "195057.190000",
        "195058.190000",
        "195059.190000",
        "195100.190000",
        "195101.190000",
        "195102.190000",
        "195103.190000",
        "195104.190000",
        "195105.190000",
        "195106.190000",
        "195107.190000",
        "195108.190000",
        "195109.190000",
        "195110.190000",
        "195111.190000",
        "195112.190000",
        "195113.190000",
        "195114.190000",
        "195115.190000",
        "195116.190000",
        "195117.190000",
        "195118.190000",
        "195119.190000",
        "195120.190000",
        "195121.190000",
        "195122.190000",
        "195123.190000",
        "195124.190000",
        "195125.190000",
        "195126.190000",
        "195127.190000",
        "195128.190000",
        "195129.190000",
        "195130.190000",
        "195131.190000",
        "195132.190000",
        "195133.190000",
        "195134.190000",
        "195135.190000",
        "195136.190000",
        "195137.190000",
        "195138.190000",
        "195139.190000",
        "195140.190000",
        "195141.190000",
        "195142.190000",
        "195143.190000",
        "195144.190000",
        "195145.190000",
        "195146.190000",
        "195147.190000",
        "195148.190000",
        "195149.190000",
        "195150.190000",
        "195151.190000",
        "195152.190000",
        "195153.190000",
        "195154.190000",
        "195155.190000",
        "195156.190000",
        "195157.190000",
        "195158.190000",
        "195159.190000",
        "195200.190000",
        "195201.190000",
        "195202.190000",
        "195203.190000",
        "195204.190000",
        "195205.190000",
        "195206.190000",
        "195207.190000",
        "195208.190000",
        "195209.190000",
        "195210.190000",
        "195211.190000",
        "195212.190000",
        "195213.190000",
        "195214.190000",
        "195215.190000",
        "195216.190000",
        "195217.190000",
        "195218.190000",
        "195219.190000",
        "195220.190000",
        "195221.190000",
        "195222.190000",
        "195223.190000",
        "195224.190000",
        "195225.190000",
        "195226.190000",
        "195227.190000",
        "195228.190000",
        "195229.190000",
        "195230.190000",
        "195231.190000",
        "195232.190000",
        "195233.190000",
        "195234.190000",
        "195235.190000",
        "195236.190000",
        "195237.190000",
        "195238.190000",
        "195239.190000",
        "195240.190000",
        "195241.190000",
        "195242.190000",
        "195243.190000",
        "195244.190000",
        "195245.190000",
        "195246.190000",
        "195247.190000",
        "195248.190000",
        "195249.190000",
        "195250.190000",
        "195251.190000",
        "195252.190000",
        "195253.190000",
        "195254.190000",
        "195255.190000",
        "195256.190000",
        "195257.190000",
        "195258.190000",
        "195259.190000",
        "195300.190000",
        "195301.190000",
        "195302.190000",
        "195303.190000",
        "195304.190000",
        "195305.190000",
        "195306.190000",
        "195307.190000",
        "195308.190000",
        "195309.190000",
        "195310.190000",
        "195311.190000",
        "195312.190000",
        "195313.190000"
      ],
      "ContentTime": [
        "194827.766000",
        "194828.585000",
        "194829.585000",
        "194830.564000",
        "194831.595000",
        "194832.574000",
        "194833.588000",
        "194834.547000",
        "194835.586000",
        "194836.564000",
        "194837.606000",
        "194838.562000",
        "194839.578000",
        "194840.612000",
        "194841.605000",
        "194842.577000",
        "194843.548000",
        "194844.622000",
        "194845.572000",
        "194846.566000",
        "194847.612000",
        "194848.604000",
        "194849.573000",
        "194850.575000",
        "194851.564000",
        "194852.641000",
        "194853.544000",
        "194854.572000",
        "194855.571000",
        "194856.627000",
        "194857.551000",
        "194858.585000",
        "194859.601000",
        "194900.601000",
        "194901.578000",
        "194902.625000",
        "194903.565000",
        "194904.583000",
        "194905.564000",
        "194906.569000",
        "194907.598000",
        "194908.546000",
        "194909.564000",
        "194910.604000",
        "194911.613000",
        "194912.579000",
        "194913.570000",
        "194914.565000",
        "194915.558000",
        "194916.579000",
        "194917.597000",
        "194918.581000",
        "194919.616000",
        "194920.581000",
        "194921.626000",
        "194922.576000",
        "194923.581000",
        "194924.585000",
        "194925.562000",
        "194926.597000",
        "194927.565000",
        "194928.582000",
        "194929.577000",
        "194930.599000",
        "194931.606000",
        "194932.563000",
        "194933.556000",
        "194934.555000",
        "194935.582000",
        "194936.592000",
        "194937.548000",
        "194938.556000",
        "194939.569000",
        "194940.567000",
        "194941.573000",
        "194942.561000",
        "194943.551000",
        "194944.575000",
        "194945.534000",
        "194946.585000",
        "194947.549000",
        "194948.559000",
        "194949.557000",
        "194950.565000",
        "194951.562000",
        "194952.560000",
        "194953.576000",
        "194954.545000",
        "194955.568000",
        "194956.537000",
        "194957.557000",
        "194958.574000",
        "194959.547000",
        "195000.561000",
        "195001.547000",
        "195002.537000",
        "195003.554000",
        "195004.553000",
        "195005.550000",
        "195006.539000",
        "195007.556000",
        "195008.579000",
        "195009.623000",
        "195010.578000",
        "195011.575000",
        "195012.573000",
        "195013.576000",
        "195014.584000",
        "195015.555000",
        "195016.565000",
        "195017.598000",
        "195018.554000",
        "195019.590000",
        "195020.598000",
        "195021.594000",
        "195022.566000",
        "195023.570000",
        "195024.555000",
        "195025.588000",
        "195026.544000",
        "195027.604000",
        "195028.543000",
        "195029.599000",
        "195030.583000",
        "195031.563000",
        "195032.567000",
        "195033.565000",
        "195034.567000",
        "195035.612000",
        "195036.570000",
        "195037.579000",
        "195038.563000",
        "195039.569000",
        "195040.569000",
        "195041.584000",
        "195042.566000",
        "195043.571000",
        "195044.575000",
        "195045.578000",
        "195046.573000",
        "195047.569000",
        "195048.597000",
        "195049.529000",
        "195050.564000",
        "195051.592000",
        "195052.588000",
        "195053.586000",
        "195054.580000",
        "195055.593000",
        "195056.570000",
        "195057.565000",
        "195058.618000",
        "195059.645000",
        "195100.581000",
        "195101.578000",
        "195102.538000",
        "195103.546000",
        "195104.538000",
        "195105.565000",
        "195106.564000",
        "195107.569000",
        "195108.563000",
        "195109.590000",
        "195110.583000",
        "195111.595000",
        "195112.556000",
        "195113.592000",
        "195114.585000",
        "195115.559000",
        "195116.563000",
        "195117.549000",
        "195118.570000",
        "195119.565000",
        "195120.579000",
        "195121.576000",
        "195122.558000",
        "195123.572000",
        "195124.570000",
        "195125.566000",
        "195126.565000",
        "195127.609000",
        "195128.618000",
        "195129.590000",
        "195130.620000",
        "195131.574000",
        "195132.549000",
        "195133.583000",
        "195134.567000",
        "195135.572000",
        "195136.573000",
        "195137.571000",
        "195138.568000",
        "195139.556000",
        "195140.583000",
        "195141.583000",
        "195142.574000",
        "195143.576000",
        "195144.610000",
        "195145.590000",
        "195146.628000",
        "195147.558000",
        "195148.569000",
        "195149.604000",
        "195150.590000",
        "195151.584000",
        "195152.563000",
        "195153.591000",
        "195154.610000",
        "195155.559000",
        "195156.576000",
        "195157.576000",
        "195158.575000",
        "195159.584000",
        "195200.558000",
        "195201.612000",
        "195202.590000",
        "195203.586000",
        "195204.597000",
        "195205.574000",
        "195206.573000",
        "195207.575000",
        "195208.547000",
        "195209.582000",
        "195210.562000",
        "195211.563000",
        "195212.568000",
        "195213.578000",
        "195214.612000",
        "195215.561000",
        "195216.567000",
        "195217.581000",
        "195218.592000",
        "195219.569000",
        "195220.562000",
        "195221.595000",
        "195222.570000",
        "195223.566000",
        "195224.576000",
        "195225.550000",
        "195226.572000",
        "195227.602000",
        "195228.555000",
        "195229.568000",
        "195230.579000",
        "195231.605000",
        "195232.566000",
        "195233.557000",
        "195234.556000",
        "195235.613000",
        "195236.592000",
        "195237.583000",
        "195238.581000",
        "195239.560000",
        "195240.574000",
        "195241.581000",
        "195242.558000",
        "195243.584000",
        "195244.589000",
        "195245.624000",
        "195246.571000",
        "195247.574000",
        "195248.587000",
        "195249.554000",
        "195250.566000",
        "195251.575000",
        "195252.553000",
        "195253.541000",
        "195254.579000",
        "195255.604000",
        "195256.566000",
        "195257.570000",
        "195258.559000",
        "195259.566000",
        "195300.543000",
        "195301.592000",
        "195302.560000",
        "195303.562000",
        "195304.567000",
        "195305.604000",
        "195306.573000",
        "195307.571000",
        "195308.588000",
        "195309.585000",
        "195310.582000",
        "195311.577000",
        "195312.571000",
        "195313.586000",
        "195314.604000"
      ],
      "InstanceCreationTime": [
        "194827.766000",
        "194828.585000",
        "194829.585000",
        "194830.564000",
        "194831.595000",
        "194832.574000",
        "194833.588000",
        "194834.547000",
        "194835.586000",
        "194836.564000",
        "194837.606000",
        "194838.562000",
        "194839.578000",
        "194840.612000",
        "194841.605000",
        "194842.577000",
        "194843.548000",
        "194844.622000",
        "194845.572000",
        "194846.566000",
        "194847.612000",
        "194848.604000",
        "194849.573000",
        "194850.575000",
        "194851.564000",
        "194852.641000",
        "194853.544000",
        "194854.572000",
        "194855.571000",
        "194856.627000",
        "194857.551000",
        "194858.585000",
        "194859.601000",
        "194900.601000",
        "194901.578000",
        "194902.625000",
        "194903.565000",
        "194904.583000",
        "194905.564000",
        "194906.569000",
        "194907.598000",
        "194908.546000",
        "194909.564000",
        "194910.604000",
        "194911.613000",
        "194912.579000",
        "194913.570000",
        "194914.565000",
        "194915.558000",
        "194916.579000",
        "194917.597000",
        "194918.581000",
        "194919.616000",
        "194920.581000",
        "194921.626000",
        "194922.576000",
        "194923.581000",
        "194924.585000",
        "194925.562000",
        "194926.597000",
        "194927.565000",
        "194928.582000",
        "194929.577000",
        "194930.599000",
        "194931.606000",
        "194932.563000",
        "194933.556000",
        "194934.555000",
        "194935.582000",
        "194936.592000",
        "194937.548000",
        "194938.556000",
        "194939.569000",
        "194940.567000",
        "194941.573000",
        "194942.561000",
        "194943.551000",
        "194944.575000",
        "194945.534000",
        "194946.585000",
        "194947.549000",
        "194948.559000",
        "194949.557000",
        "194950.565000",
        "194951.562000",
        "194952.560000",
        "194953.576000",
        "194954.545000",
        "194955.568000",
        "194956.537000",
        "194957.557000",
        "194958.574000",
        "194959.547000",
        "195000.561000",
        "195001.547000",
        "195002.537000",
        "195003.554000",
        "195004.553000",
        "195005.550000",
        "195006.539000",
        "195007.556000",
        "195008.579000",
        "195009.623000",
        "195010.578000",
        "195011.575000",
        "195012.573000",
        "195013.576000",
        "195014.584000",
        "195015.555000",
        "195016.565000",
        "195017.598000",
        "195018.554000",
        "195019.590000",
        "195020.598000",
        "195021.594000",
        "195022.566000",
        "195023.570000",
        "195024.555000",
        "195025.588000",
        "195026.544000",
        "195027.604000",
        "195028.543000",
        "195029.599000",
        "195030.583000",
        "195031.563000",
        "195032.567000",
        "195033.565000",
        "195034.567000",
        "195035.612000",
        "195036.570000",
        "195037.579000",
        "195038.563000",
        "195039.569000",
        "195040.569000",
        "195041.584000",
        "195042.566000",
        "195043.571000",
        "195044.575000",
        "195045.578000",
        "195046.573000",
        "195047.569000",
        "195048.597000",
        "195049.529000",
        "195050.564000",
        "195051.592000",
        "195052.588000",
        "195053.586000",
        "195054.580000",
        "195055.593000",
        "195056.570000",
        "195057.565000",
        "195058.618000",
        "195059.645000",
        "195100.581000",
        "195101.578000",
        "195102.538000",
        "195103.546000",
        "195104.538000",
        "195105.565000",
        "195106.564000",
        "195107.569000",
        "195108.563000",
        "195109.590000",
        "195110.583000",
        "195111.595000",
        "195112.556000",
        "195113.592000",
        "195114.585000",
        "195115.559000",
        "195116.563000",
        "195117.549000",
        "195118.570000",
        "195119.565000",
        "195120.579000",
        "195121.576000",
        "195122.558000",
        "195123.572000",
        "195124.570000",
        "195125.566000",
        "195126.565000",
        "195127.609000",
        "195128.618000",
        "195129.590000",
        "195130.620000",
        "195131.574000",
        "195132.549000",
        "195133.583000",
        "195134.567000",
        "195135.572000",
        "195136.573000",
        "195137.571000",
        "195138.568000",
        "195139.556000",
        "195140.583000",
        "195141.583000",
        "195142.574000",
        "195143.576000",
        "195144.610000",
        "195145.590000",
        "195146.628000",
        "195147.558000",
        "195148.569000",
        "195149.604000",
        "195150.590000",
        "195151.584000",
        "195152.563000",
        "195153.591000",
        "195154.610000",
        "195155.559000",
        "195156.576000",
        "195157.576000",
        "195158.575000",
        "195159.584000",
        "195200.558000",
        "195201.612000",
        "195202.590000",
        "195203.586000",
        "195204.597000",
        "195205.574000",
        "195206.573000",
        "195207.575000",
        "195208.547000",
        "195209.582000",
        "195210.562000",
        "195211.563000",
        "195212.568000",
        "195213.578000",
        "195214.612000",
        "195215.561000",
        "195216.567000",
        "195217.581000",
        "195218.592000",
        "195219.569000",
        "195220.562000",
        "195221.595000",
        "195222.570000",
        "195223.566000",
        "195224.576000",
        "195225.550000",
        "195226.572000",
        "195227.602000",
        "195228.555000",
        "195229.568000",
        "195230.579000",
        "195231.605000",
        "195232.566000",
        "195233.557000",
        "195234.556000",
        "195235.613000",
        "195236.592000",
        "195237.583000",
        "195238.581000",
        "195239.560000",
        "195240.574000",
        "195241.581000",
        "195242.558000",
        "195243.584000",
        "195244.589000",
        "195245.624000",
        "195246.571000",
        "195247.574000",
        "195248.587000",
        "195249.554000",
        "195250.566000",
        "195251.575000",
        "195252.553000",
        "195253.541000",
        "195254.579000",
        "195255.604000",
        "195256.566000",
        "195257.570000",
        "195258.559000",
        "195259.566000",
        "195300.543000",
        "195301.592000",
        "195302.560000",
        "195303.562000",
        "195304.567000",
        "195305.604000",
        "195306.573000",
        "195307.571000",
        "195308.588000",
        "195309.585000",
        "195310.582000",
        "195311.577000",
        "195312.571000",
        "195313.586000",
        "195314.604000"
      ],
      "InstanceNumber": [
        1,
        2,
        3,
        4,
        5,
        6,
        7,
        8,
        9,
        10,
        11,
        12,
        13,
        14,
        15,
        16,
        17,
        18,
        19,
        20,
        21,
        22,
        23,
        24,
        25,
        26,
        27,
        28,
        29,
        30,
        31,
        32,
        33,
        34,
        35,
        36,
        37,
        38,
        39,
        40,
        41,
        42,
        43,
        44,
        45,
        46,
        47,
        48,
        49,
        50,
        51,
        52,
        53,
        54,
        55,
        56,
        57,
        58,
        59,
        60,
        61,
        62,
        63,
        64,
        65,
        66,
        67,
        68,
        69,
        70,
        71,
        72,
        73,
        74,
        75,
        76,
        77,
        78,
        79,
        80,
        81,
        82,
        83,
        84,
        85,
        86,
        87,
        88,
        89,
        90,
        91,
        92,
        93,
        94,
        95,
        96,
        97,
        98,
        99,
        100,
        101,
        102,
        103,
        104,
        105,
        106,
        107,
        108,
        109,
        110,
        111,
        112,
        113,
        114,
        115,
        116,
        117,
        118,
        119,
        120,
        121,
        122,
        123,
        124,
        125,
        126,
        127,
        128,
        129,
        130,
        131,
        132,
        133,
        134,
        135,
        136,
        137,
        138,
        139,
        140,
        141,
        142,
        143,
        144,
        145,
        146,
        147,
        148,
        149,
        150,
        151,
        152,
        153,
        154,
        155,
        156,
        157,
