{
  "AcquisitionMatrixPE": 96,
  "AcquisitionNumber": 1,
  "BandwidthPerPixelPhaseEncode": 18.939,
  "BaseResolution": 96,
  "BodyPartExamined": "BRAIN",
  "ConsistencyInfo": "N4_VE11C_LATEST_20160120",
  "ConversionSoftware": "dcm2niix",
  "ConversionSoftwareVersion": "v1.0.20171215 (OpenJPEG build) GCC6.3.0",
  "DerivedVendorReportedEchoSpacing": 0.000550011,
  "DeviceSerialNumber": "66112",
  "DwellTime": 2.2e-06,
  "EchoTime": 0.033,
  "EchoTrainLength": 96,
  "EffectiveEchoSpacing": 0.000550011,
  "FlipAngle": 59,
  "ImageOrientationPatientDICOM": [
    0.999287,
    0.0340023,
    -0.0164387,
    -0.0359436,
    0.989843,
    -0.137547
  ],
  "ImageType": [
    "ORIGINAL",
    "PRIMARY",
    "FMRI",
    "NONE",
    "ND",
    "NORM",
    "MOSAIC"
  ],
  "InPlanePhaseEncodingDirectionDICOM": "COL",
  "InstitutionAddress": "Maynard_3_Hanover_NH_US_03755",
  "InstitutionName": "Dartmouth_College_-_PBS",
  "InstitutionalDepartmentName": "Department",
  "MRAcquisitionType": "2D",
  "MagneticFieldStrength": 3,
  "Manufacturer": "Siemens",
  "ManufacturersModelName": "Prisma",
  "Modality": "MR",
  "MultibandAccelerationFactor": 4,
  "PartialFourier": 1,
  "PatientPosition": "HFS",
  "PercentPhaseFOV": 100,
  "PhaseEncodingDirection": "j-",
  "PhaseEncodingSteps": 96,
  "PhaseResolution": 1,
  "PixelBandwidth": 2365,
  "ProcedureStepDescription": "Gobbini_Matteo_1038_hyperface",
  "ProtocolName": "func_run-03_task-visualmemory",
  "PulseSequenceDetails": "%SiemensSeq%_ep2d_bold",
  "ReceiveCoilActiveElements": "HEA;HEP",
  "ReceiveCoilName": "Head_32",
  "ReconMatrixPE": 96,
  "RepetitionTime": 1,
  "SAR": 0.0518448,
  "ScanOptions": "FS",
  "ScanningSequence": "EP",
  "SequenceName": "_epfid2d1_96",
  "SequenceVariant": "SK",
  "SeriesDescription": "func_run-03_task-visualmemory",
  "SeriesNumber": 22,
  "ShimSetting": [
    4146,
    -7683,
    -7289,
    532,
    -29,
    16,
    66,
    106
  ],
  "SliceThickness": 2.5,
  "SliceTiming": [
    0.735,
    0,
    0.49,
    0.08,
    0.57,
    0.1625,
    0.6525,
    0.325,
    0.815,
    0.4075,
    0.8975,
    0.245,
    0.735,
    0,
    0.49,
    0.08,
    0.57,
    0.1625,
    0.6525,
    0.325,
    0.815,
    0.4075,
    0.8975,
    0.245,
    0.735,
    0,
    0.49,
    0.08,
    0.57,
    0.1625,
    0.6525,
    0.325,
    0.815,
    0.4075,
    0.8975,
    0.245,
    0.735,
    0,
    0.49,
    0.08,
    0.57,
    0.1625,
    0.6525,
    0.325,
    0.815,
    0.4075,
    0.8975,
    0.245
  ],
  "SoftwareVersions": "syngo_MR_E11",
  "SpacingBetweenSlices": 2.5,
  "StationName": "AWP66112",
  "TotalReadoutTime": 0.0522511,
  "TxRefAmp": 244.909,
  "time": {
    "samples": {
      "AcquisitionNumber": [
        1,
        2,
        3,
        4,
        5,
        6,
        7,
        8,
        9,
        10,
        11,
        12,
        13,
        14,
        15,
        16,
        17,
        18,
        19,
        20,
        21,
        22,
        23,
        24,
        25,
        26,
        27,
        28,
        29,
        30,
        31,
        32,
        33,
        34,
        35,
        36,
        37,
        38,
        39,
        40,
        41,
        42,
        43,
        44,
        45,
        46,
        47,
        48,
        49,
        50,
        51,
        52,
        53,
        54,
        55,
        56,
        57,
        58,
        59,
        60,
        61,
        62,
        63,
        64,
        65,
        66,
        67,
        68,
        69,
        70,
        71,
        72,
        73,
        74,
        75,
        76,
        77,
        78,
        79,
        80,
        81,
        82,
        83,
        84,
        85,
        86,
        87,
        88,
        89,
        90,
        91,
        92,
        93,
        94,
        95,
        96,
        97,
        98,
        99,
        100,
        101,
        102,
        103,
        104,
        105,
        106,
        107,
        108,
        109,
        110,
        111,
        112,
        113,
        114,
        115,
        116,
        117,
        118,
        119,
        120,
        121,
        122,
        123,
        124,
        125,
        126,
        127,
        128,
        129,
        130,
        131,
        132,
        133,
        134,
        135,
        136,
        137,
        138,
        139,
        140,
        141,
        142,
        143,
        144,
        145,
        146,
        147,
        148,
        149,
        150,
        151,
        152,
        153,
        154,
        155,
        156,
        157,
        158,
        159,
        160,
        161,
        162,
        163,
        164,
        165,
        166,
        167,
        168,
        169,
        170,
        171,
        172,
        173,
        174,
        175,
        176,
        177,
        178,
        179,
        180,
        181,
        182,
        183,
        184,
        185,
        186,
        187,
        188,
        189,
        190,
        191,
        192,
        193,
        194,
        195,
        196,
        197,
        198,
        199,
        200,
        201,
        202,
        203,
        204,
        205,
        206,
        207,
        208,
        209,
        210,
        211,
        212,
        213,
        214,
        215,
        216,
        217,
        218,
        219,
        220,
        221,
        222,
        223,
        224,
        225,
        226,
        227,
        228,
        229,
        230,
        231,
        232,
        233,
        234,
        235,
        236,
        237,
        238,
        239,
        240,
        241,
        242,
        243,
        244,
        245,
        246,
        247,
        248,
        249,
        250,
        251,
        252,
        253,
        254,
        255,
        256,
        257,
        258,
        259,
        260,
        261,
        262,
        263,
        264,
        265,
        266,
        267,
        268,
        269,
        270,
        271,
        272,
        273,
        274,
        275,
        276,
        277,
        278,
        279,
        280,
        281,
        282,
        283,
        284,
        285,
        286,
        287,
        288
      ],
      "AcquisitionTime": [
        "192123.842500",
        "192124.842500",
        "192125.842500",
        "192126.842500",
        "192127.842500",
        "192128.842500",
        "192129.842500",
        "192130.842500",
        "192131.842500",
        "192132.842500",
        "192133.842500",
        "192134.842500",
        "192135.842500",
        "192136.842500",
        "192137.842500",
        "192138.842500",
        "192139.842500",
        "192140.842500",
        "192141.842500",
        "192142.842500",
        "192143.842500",
        "192144.842500",
        "192145.842500",
        "192146.842500",
        "192147.842500",
        "192148.842500",
        "192149.842500",
        "192150.842500",
        "192151.842500",
        "192152.842500",
        "192153.842500",
        "192154.842500",
        "192155.842500",
        "192156.842500",
        "192157.842500",
        "192158.842500",
        "192159.842500",
        "192200.842500",
        "192201.842500",
        "192202.842500",
        "192203.842500",
        "192204.842500",
        "192205.842500",
        "192206.842500",
        "192207.842500",
        "192208.842500",
        "192209.842500",
        "192210.842500",
        "192211.842500",
        "192212.842500",
        "192213.842500",
        "192214.842500",
        "192215.842500",
        "192216.842500",
        "192217.842500",
        "192218.842500",
        "192219.842500",
        "192220.842500",
        "192221.842500",
        "192222.842500",
        "192223.842500",
        "192224.842500",
        "192225.842500",
        "192226.842500",
        "192227.842500",
        "192228.842500",
        "192229.842500",
        "192230.842500",
        "192231.842500",
        "192232.842500",
        "192233.842500",
        "192234.842500",
        "192235.842500",
        "192236.842500",
        "192237.842500",
        "192238.842500",
        "192239.842500",
        "192240.842500",
        "192241.842500",
        "192242.842500",
        "192243.842500",
        "192244.842500",
        "192245.842500",
        "192246.842500",
        "192247.842500",
        "192248.842500",
        "192249.842500",
        "192250.842500",
        "192251.842500",
        "192252.842500",
        "192253.842500",
        "192254.842500",
        "192255.842500",
        "192256.842500",
        "192257.842500",
        "192258.842500",
        "192259.842500",
        "192300.842500",
        "192301.842500",
        "192302.842500",
        "192303.842500",
        "192304.842500",
        "192305.842500",
        "192306.842500",
        "192307.842500",
        "192308.842500",
        "192309.842500",
        "192310.842500",
        "192311.842500",
        "192312.842500",
        "192313.842500",
        "192314.842500",
        "192315.842500",
        "192316.842500",
        "192317.842500",
        "192318.842500",
        "192319.842500",
        "192320.842500",
        "192321.842500",
        "192322.842500",
        "192323.842500",
        "192324.842500",
        "192325.842500",
        "192326.842500",
        "192327.842500",
        "192328.842500",
        "192329.842500",
        "192330.842500",
        "192331.842500",
        "192332.842500",
        "192333.842500",
        "192334.842500",
        "192335.842500",
        "192336.842500",
        "192337.842500",
        "192338.842500",
        "192339.842500",
        "192340.842500",
        "192341.842500",
        "192342.842500",
        "192343.842500",
        "192344.842500",
        "192345.842500",
        "192346.842500",
        "192347.842500",
        "192348.842500",
        "192349.842500",
        "192350.842500",
        "192351.842500",
        "192352.842500",
        "192353.842500",
        "192354.842500",
        "192355.842500",
        "192356.842500",
        "192357.842500",
        "192358.842500",
        "192359.842500",
        "192400.842500",
        "192401.842500",
        "192402.842500",
        "192403.842500",
        "192404.842500",
        "192405.842500",
        "192406.842500",
        "192407.842500",
        "192408.842500",
        "192409.842500",
        "192410.842500",
        "192411.842500",
        "192412.842500",
        "192413.842500",
        "192414.842500",
        "192415.842500",
        "192416.842500",
        "192417.842500",
        "192418.842500",
        "192419.842500",
        "192420.842500",
        "192421.842500",
        "192422.842500",
        "192423.842500",
        "192424.842500",
        "192425.842500",
        "192426.842500",
        "192427.842500",
        "192428.842500",
        "192429.842500",
        "192430.842500",
        "192431.842500",
        "192432.842500",
        "192433.842500",
        "192434.842500",
        "192435.842500",
        "192436.842500",
        "192437.842500",
        "192438.842500",
        "192439.842500",
        "192440.842500",
        "192441.842500",
        "192442.842500",
        "192443.842500",
        "192444.842500",
        "192445.842500",
        "192446.842500",
        "192447.842500",
        "192448.842500",
        "192449.842500",
        "192450.842500",
        "192451.842500",
        "192452.842500",
        "192453.842500",
        "192454.842500",
        "192455.842500",
        "192456.842500",
        "192457.842500",
        "192458.842500",
        "192459.842500",
        "192500.842500",
        "192501.842500",
        "192502.842500",
        "192503.842500",
        "192504.842500",
        "192505.842500",
        "192506.842500",
        "192507.842500",
        "192508.842500",
        "192509.842500",
        "192510.842500",
        "192511.842500",
        "192512.842500",
        "192513.842500",
        "192514.842500",
        "192515.842500",
        "192516.842500",
        "192517.842500",
        "192518.842500",
        "192519.842500",
        "192520.842500",
        "192521.842500",
        "192522.842500",
        "192523.842500",
        "192524.842500",
        "192525.842500",
        "192526.842500",
        "192527.842500",
        "192528.842500",
        "192529.842500",
        "192530.842500",
        "192531.842500",
        "192532.842500",
        "192533.842500",
        "192534.842500",
        "192535.842500",
        "192536.842500",
        "192537.842500",
        "192538.842500",
        "192539.842500",
        "192540.842500",
        "192541.842500",
        "192542.842500",
        "192543.842500",
        "192544.842500",
        "192545.842500",
        "192546.842500",
        "192547.842500",
        "192548.842500",
        "192549.842500",
        "192550.842500",
        "192551.842500",
        "192552.842500",
        "192553.842500",
        "192554.842500",
        "192555.842500",
        "192556.842500",
        "192557.842500",
        "192558.842500",
        "192559.842500",
        "192600.842500",
        "192601.842500",
        "192602.842500",
        "192603.842500",
        "192604.842500",
        "192605.842500",
        "192606.842500",
        "192607.842500",
        "192608.842500",
        "192609.842500",
        "192610.842500"
      ],
      "ContentTime": [
        "192125.145000",
        "192126.028000",
        "192126.992000",
        "192127.988000",
        "192128.959000",
        "192129.976000",
        "192130.986000",
        "192131.982000",
        "192133.012000",
        "192133.988000",
        "192135.014000",
        "192136.016000",
        "192136.982000",
        "192138.061000",
        "192138.974000",
        "192139.977000",
        "192140.954000",
        "192142.004000",
        "192142.992000",
        "192144.011000",
        "192144.948000",
        "192145.959000",
        "192146.986000",
        "192147.962000",
        "192148.958000",
        "192150.013000",
        "192150.974000",
        "192151.969000",
        "192152.965000",
        "192153.978000",
        "192154.965000",
        "192155.994000",
        "192156.975000",
        "192157.965000",
        "192158.967000",
        "192159.972000",
        "192200.975000",
        "192201.984000",
        "192203.014000",
        "192204.001000",
        "192204.962000",
        "192205.992000",
        "192206.957000",
        "192207.972000",
        "192209.017000",
        "192209.986000",
        "192210.957000",
        "192211.974000",
        "192212.989000",
        "192214.008000",
        "192214.958000",
        "192215.960000",
        "192216.978000",
        "192217.965000",
        "192219.001000",
        "192219.974000",
        "192220.957000",
        "192221.955000",
        "192222.982000",
        "192223.969000",
        "192224.945000",
        "192225.959000",
        "192226.957000",
        "192227.960000",
        "192228.990000",
        "192229.968000",
        "192230.959000",
        "192232.011000",
        "192232.993000",
        "192233.947000",
        "192235.036000",
        "192236.012000",
        "192237.010000",
        "192237.960000",
        "192238.974000",
        "192240.000000",
        "192240.986000",
        "192241.982000",
        "192242.968000",
        "192243.982000",
        "192244.986000",
        "192245.974000",
        "192246.988000",
        "192247.968000",
        "192248.972000",
        "192249.966000",
        "192251.014000",
        "192251.983000",
        "192252.959000",
        "192253.974000",
        "192254.961000",
        "192255.949000",
        "192256.989000",
        "192257.982000",
        "192258.966000",
        "192259.972000",
        "192300.958000",
        "192302.002000",
        "192302.981000",
        "192303.992000",
        "192304.997000",
        "192305.978000",
        "192306.946000",
        "192307.998000",
        "192308.994000",
        "192309.971000",
        "192310.983000",
        "192311.961000",
        "192312.992000",
        "192314.009000",
        "192315.016000",
        "192315.966000",
        "192317.022000",
        "192318.012000",
        "192319.017000",
        "192319.986000",
        "192320.978000",
        "192321.990000",
        "192323.000000",
        "192323.957000",
        "192324.982000",
        "192325.993000",
        "192327.003000",
        "192327.979000",
        "192328.976000",
        "192329.984000",
        "192330.992000",
        "192331.988000",
        "192332.970000",
        "192333.979000",
        "192334.976000",
        "192336.267000",
        "192337.269000",
        "192337.993000",
        "192339.337000",
        "192340.334000",
        "192341.134000",
        "192342.153000",
        "192343.001000",
        "192344.225000",
        "192345.261000",
        "192346.288000",
        "192347.335000",
        "192348.115000",
        "192349.240000",
        "192350.202000",
        "192351.044000",
        "192352.036000",
        "192353.085000",
        "192354.000000",
        "192355.055000",
        "192356.010000",
        "192357.075000",
        "192358.015000",
        "192359.153000",
        "192400.058000",
        "192401.041000",
        "192402.088000",
        "192403.007000",
        "192404.068000",
        "192405.187000",
        "192406.003000",
        "192407.096000",
        "192408.081000",
        "192409.026000",
        "192410.064000",
        "192411.154000",
        "192412.058000",
        "192413.084000",
        "192414.135000",
        "192415.053000",
        "192416.044000",
        "192417.202000",
        "192418.058000",
        "192419.135000",
        "192420.140000",
        "192421.181000",
        "192422.128000",
        "192423.100000",
        "192424.029000",
        "192425.385000",
        "192426.223000",
        "192427.065000",
        "192428.092000",
        "192429.172000",
        "192430.096000",
        "192431.220000",
        "192432.080000",
        "192433.024000",
        "192434.159000",
        "192435.059000",
        "192436.092000",
        "192437.138000",
        "192438.093000",
        "192439.078000",
        "192440.110000",
        "192441.182000",
        "192442.069000",
        "192443.078000",
        "192444.103000",
        "192445.054000",
        "192446.166000",
        "192447.114000",
        "192448.140000",
        "192449.105000",
        "192450.031000",
        "192451.365000",
        "192452.130000",
        "192453.120000",
        "192454.116000",
        "192455.218000",
        "192456.006000",
        "192457.051000",
        "192458.184000",
        "192459.184000",
        "192500.123000",
        "192501.146000",
        "192502.168000",
        "192503.172000",
        "192504.208000",
        "192505.121000",
        "192505.997000",
        "192507.381000",
        "192508.160000",
        "192509.119000",
        "192510.184000",
        "192511.227000",
        "192512.055000",
        "192513.005000",
        "192514.020000",
        "192515.210000",
        "192516.086000",
        "192517.018000",
        "192517.983000",
        "192519.127000",
        "192520.155000",
        "192521.102000",
        "192521.988000",
        "192522.985000",
        "192524.078000",
        "192525.221000",
        "192526.083000",
        "192527.147000",
        "192528.080000",
        "192529.060000",
        "192529.990000",
        "192531.075000",
        "192532.088000",
        "192533.024000",
        "192533.981000",
        "192535.023000",
        "192536.087000",
        "192537.003000",
        "192537.986000",
        "192538.989000",
        "192539.979000",
        "192540.996000",
        "192541.975000",
        "192542.960000",
        "192543.994000",
        "192544.964000",
        "192545.988000",
        "192546.984000",
        "192547.964000",
        "192548.997000",
        "192549.980000",
        "192551.057000",
        "192551.963000",
        "192552.972000",
        "192553.997000",
        "192554.990000",
        "192556.001000",
        "192556.975000",
        "192557.978000",
        "192558.995000",
        "192559.988000",
        "192600.974000",
        "192602.010000",
        "192602.941000",
        "192603.971000",
        "192604.995000",
        "192606.000000",
        "192607.007000",
        "192607.989000",
        "192609.010000",
        "192609.980000",
        "192611.009000",
        "192612.012000"
      ],
      "InstanceCreationTime": [
        "192125.145000",
        "192126.028000",
        "192126.992000",
        "192127.988000",
        "192128.959000",
        "192129.976000",
        "192130.986000",
        "192131.982000",
        "192133.012000",
        "192133.988000",
        "192135.014000",
        "192136.016000",
        "192136.982000",
        "192138.061000",
        "192138.974000",
        "192139.977000",
        "192140.954000",
        "192142.004000",
        "192142.992000",
        "192144.011000",
        "192144.948000",
        "192145.959000",
        "192146.986000",
        "192147.962000",
        "192148.958000",
        "192150.013000",
        "192150.974000",
        "192151.969000",
        "192152.965000",
        "192153.978000",
        "192154.965000",
        "192155.994000",
        "192156.975000",
        "192157.965000",
        "192158.967000",
        "192159.972000",
        "192200.975000",
        "192201.984000",
        "192203.014000",
        "192204.001000",
        "192204.962000",
        "192205.992000",
        "192206.957000",
        "192207.972000",
        "192209.017000",
        "192209.986000",
        "192210.957000",
        "192211.974000",
        "192212.989000",
        "192214.008000",
        "192214.958000",
        "192215.960000",
        "192216.978000",
        "192217.965000",
        "192219.001000",
        "192219.974000",
        "192220.957000",
        "192221.955000",
        "192222.982000",
        "192223.969000",
        "192224.945000",
        "192225.959000",
        "192226.957000",
        "192227.960000",
        "192228.990000",
        "192229.968000",
        "192230.959000",
        "192232.011000",
        "192232.993000",
        "192233.947000",
        "192235.036000",
        "192236.012000",
        "192237.010000",
        "192237.960000",
        "192238.974000",
        "192240.000000",
        "192240.986000",
        "192241.982000",
        "192242.968000",
        "192243.982000",
        "192244.986000",
        "192245.974000",
        "192246.988000",
        "192247.968000",
        "192248.972000",
        "192249.966000",
        "192251.014000",
        "192251.983000",
        "192252.959000",
        "192253.974000",
        "192254.961000",
        "192255.949000",
        "192256.989000",
        "192257.982000",
        "192258.966000",
        "192259.972000",
        "192300.958000",
        "192302.002000",
        "192302.981000",
        "192303.992000",
        "192304.997000",
        "192305.978000",
        "192306.946000",
        "192307.998000",
        "192308.994000",
        "192309.971000",
        "192310.983000",
        "192311.961000",
        "192312.992000",
        "192314.009000",
        "192315.016000",
        "192315.966000",
        "192317.022000",
        "192318.012000",
        "192319.017000",
        "192319.986000",
        "192320.978000",
        "192321.990000",
        "192323.000000",
        "192323.957000",
        "192324.982000",
        "192325.993000",
        "192327.003000",
        "192327.979000",
        "192328.976000",
        "192329.984000",
        "192330.992000",
        "192331.988000",
        "192332.970000",
        "192333.979000",
        "192334.976000",
        "192336.267000",
        "192337.269000",
        "192337.993000",
        "192339.337000",
        "192340.334000",
        "192341.134000",
        "192342.153000",
        "192343.001000",
        "192344.225000",
        "192345.261000",
        "192346.288000",
        "192347.335000",
        "192348.115000",
        "192349.240000",
        "192350.202000",
        "192351.044000",
        "192352.036000",
        "192353.085000",
        "192354.000000",
        "192355.055000",
        "192356.010000",
        "192357.075000",
        "192358.015000",
        "192359.153000",
        "192400.058000",
        "192401.041000",
        "192402.088000",
        "192403.007000",
        "192404.068000",
        "192405.187000",
        "192406.003000",
        "192407.096000",
        "192408.081000",
        "192409.026000",
        "192410.064000",
        "192411.154000",
        "192412.058000",
        "192413.084000",
        "192414.135000",
        "192415.053000",
        "192416.044000",
        "192417.202000",
        "192418.058000",
        "192419.135000",
        "192420.140000",
        "192421.181000",
        "192422.128000",
        "192423.100000",
        "192424.029000",
        "192425.385000",
        "192426.223000",
        "192427.065000",
        "192428.092000",
        "192429.172000",
        "192430.096000",
        "192431.220000",
        "192432.080000",
        "192433.024000",
        "192434.159000",
        "192435.059000",
        "192436.092000",
        "192437.138000",
        "192438.093000",
        "192439.078000",
        "192440.110000",
        "192441.182000",
        "192442.069000",
        "192443.078000",
        "192444.103000",
        "192445.054000",
        "192446.166000",
        "192447.114000",
        "192448.140000",
        "192449.105000",
        "192450.031000",
        "192451.365000",
        "192452.130000",
        "192453.120000",
        "192454.116000",
        "192455.218000",
        "192456.006000",
        "192457.051000",
        "192458.184000",
        "192459.184000",
        "192500.123000",
        "192501.146000",
        "192502.168000",
        "192503.172000",
        "192504.208000",
        "192505.121000",
        "192505.997000",
        "192507.381000",
        "192508.160000",
        "192509.119000",
        "192510.184000",
        "192511.227000",
        "192512.055000",
        "192513.005000",
        "192514.020000",
        "192515.210000",
        "192516.086000",
        "192517.018000",
        "192517.983000",
        "192519.127000",
        "192520.155000",
        "192521.102000",
        "192521.988000",
        "192522.985000",
        "192524.078000",
        "192525.221000",
        "192526.083000",
        "192527.147000",
        "192528.080000",
        "192529.060000",
        "192529.990000",
        "192531.075000",
        "192532.088000",
        "192533.024000",
        "192533.981000",
        "192535.023000",
        "192536.087000",
        "192537.003000",
        "192537.986000",
        "192538.989000",
        "192539.979000",
        "192540.996000",
        "192541.975000",
        "192542.960000",
        "192543.994000",
        "192544.964000",
        "192545.988000",
        "192546.984000",
        "192547.964000",
        "192548.997000",
        "192549.980000",
        "192551.057000",
        "192551.963000",
        "192552.972000",
        "192553.997000",
        "192554.990000",
        "192556.001000",
        "192556.975000",
        "192557.978000",
        "192558.995000",
        "192559.988000",
        "192600.974000",
        "192602.010000",
        "192602.941000",
        "192603.971000",
        "192604.995000",
        "192606.000000",
        "192607.007000",
        "192607.989000",
        "192609.010000",
        "192609.980000",
        "192611.009000",
        "192612.012000"
      ],
      "InstanceNumber": [
        1,
        2,
        3,
        4,
        5,
        6,
        7,
        8,
        9,
        10,
        11,
        12,
        13,
        14,
        15,
        16,
        17,
        18,
        19,
        20,
        21,
        22,
        23,
        24,
        25,
        26,
        27,
        28,
        29,
        30,
        31,
        32,
        33,
        34,
        35,
        36,
        37,
        38,
        39,
        40,
        41,
        42,
        43,
        44,
        45,
        46,
        47,
        48,
        49,
        50,
        51,
        52,
        53,
        54,
        55,
        56,
        57,
        58,
        59,
        60,
        61,
        62,
        63,
        64,
        65,
        66,
        67,
        68,
        69,
        70,
        71,
        72,
        73,
        74,
        75,
        76,
        77,
        78,
        79,
        80,
        81,
        82,
        83,
        84,
        85,
        86,
        87,
        88,
        89,
        90,
        91,
        92,
        93,
        94,
        95,
        96,
        97,
        98,
        99,
        100,
        101,
        102,
        103,
        104,
        105,
        106,
        107,
        108,
        109,
        110,
        111,
        112,
        113,
        114,
        115,
        116,
        117,
        118,
        119,
        120,
        121,
        122,
        123,
        124,
        125,
        126,
        127,
        128,
        129,
        130,
        131,
        132,
        133,
        134,
        135,
        136,
        137,
        138,
        139,
        140,
        141,
        142,
        143,
        144,
        145,
        146,
        147,
        148,
        149,
        150,
        151,
        152,
        153,
        154,
        155,
