{
  "AcquisitionMatrixPE": 96,
  "AcquisitionNumber": 1,
  "AcquisitionTime": "18:23:6.650000",
  "BandwidthPerPixelPhaseEncode": 18.939,
  "BaseResolution": 96,
  "BodyPartExamined": "BRAIN",
  "ConsistencyInfo": "N4_VE11C_LATEST_20160120",
  "ConversionSoftware": "dcm2niix",
  "ConversionSoftwareVersion": "v1.0.20171215 (OpenJPEG build) GCC6.3.0",
  "DerivedVendorReportedEchoSpacing": 0.000550011,
  "DeviceSerialNumber": "66112",
  "DwellTime": 2.2e-06,
  "EchoTime": 0.033,
  "EchoTrainLength": 96,
  "EffectiveEchoSpacing": 0.000550011,
  "FlipAngle": 59,
  "ImageOrientationPatientDICOM": [
    0.997718,
    0.0544669,
    -0.0399106,
    -0.0570039,
    0.996226,
    -0.0654594
  ],
  "ImageType": [
    "ORIGINAL",
    "PRIMARY",
    "FMRI",
    "NONE",
    "ND",
    "NORM",
    "MOSAIC"
  ],
  "InPlanePhaseEncodingDirectionDICOM": "COL",
  "InstitutionAddress": "Maynard_3_Hanover_NH_US_03755",
  "InstitutionName": "Dartmouth_College_-_PBS",
  "InstitutionalDepartmentName": "Department",
  "MRAcquisitionType": "2D",
  "MagneticFieldStrength": 3,
  "Manufacturer": "Siemens",
  "ManufacturersModelName": "Prisma",
  "Modality": "MR",
  "MultibandAccelerationFactor": 4,
  "PatientPosition": "HFS",
  "PercentPhaseFOV": 100,
  "PhaseEncodingDirection": "j-",
  "PhaseEncodingSteps": 96,
  "PhaseResolution": 1,
  "PixelBandwidth": 2365,
  "ProcedureStepDescription": "Gobbini_Matteo_1038_hyperface",
  "ProtocolName": "func_run-01_task-localizer",
  "PulseSequenceDetails": "%SiemensSeq%_ep2d_bold",
  "ReceiveCoilActiveElements": "HEA;HEP",
  "ReceiveCoilName": "Head_32",
  "ReconMatrixPE": 96,
  "RepetitionTime": 1,
  "SAR": 0.047524,
  "ScanOptions": "FS",
  "ScanningSequence": "EP",
  "SequenceName": "_epfid2d1_96",
  "SequenceVariant": "SK",
  "SeriesDescription": "func_run-01_task-localizer",
  "SeriesNumber": 8,
  "ShimSetting": [
    4128,
    -7689,
    -7304,
    680,
    -4,
    -89,
    37,
    93
  ],
  "SliceThickness": 2.5,
  "SliceTiming": [
    0.735,
    0,
    0.49,
    0.08,
    0.57,
    0.1625,
    0.6525,
    0.325,
    0.815,
    0.4075,
    0.8975,
    0.245,
    0.735,
    0,
    0.49,
    0.08,
    0.57,
    0.1625,
    0.6525,
    0.325,
    0.815,
    0.4075,
    0.8975,
    0.245,
    0.735,
    0,
    0.49,
    0.08,
    0.57,
    0.1625,
    0.6525,
    0.325,
    0.815,
    0.4075,
    0.8975,
    0.245,
    0.735,
    0,
    0.49,
    0.08,
    0.57,
    0.1625,
    0.6525,
    0.325,
    0.815,
    0.4075,
    0.8975,
    0.245
  ],
  "SoftwareVersions": "syngo_MR_E11",
  "SpacingBetweenSlices": 2.5,
  "StationName": "AWP66112",
  "TotalReadoutTime": 0.0522511,
  "TxRefAmp": 257.943,
  "dcmmeta_affine": [
    [
      -2.4942941665649414,
      -0.1425098180770874,
      -0.09048642218112946,
      134.5462646484375
    ],
    [
      -0.13616719841957092,
      2.4905641078948975,
      -0.16896259784698486,
      -98.85813903808594
    ],
    [
      -0.09977642446756363,
      0.16364844143390656,
      2.4926419258117676,
      -83.12103271484375
    ],
    [
      0.0,
      0.0,
      0.0,
      1.0
    ]
  ],
  "dcmmeta_reorient_transform": [
    [
      0.0,
      -1.0,
      0.0,
      95.0
    ],
    [
      1.0,
      0.0,
      0.0,
      0.0
    ],
    [
      0.0,
      0.0,
      1.0,
      0.0
    ],
    [
      0.0,
      0.0,
      0.0,
      1.0
    ]
  ],
  "dcmmeta_shape": [
    96,
    96,
    48,
    236
  ],
  "dcmmeta_slice_dim": 2,
  "dcmmeta_version": 0.6,
  "global": {
    "const": {
      "AccessionNumber": "A001343",
      "AcquisitionMatrix": [
        96,
        0,
        0,
        96
      ],
      "AngioFlag": "N",
      "BitsAllocated": 16,
      "BitsStored": 12,
      "BodyPartExamined": "BRAIN",
      "Columns": 672,
      "EchoNumbers": 1,
      "EchoTime": 33.0,
      "EchoTrainLength": 96,
      "FlipAngle": 59.0,
      "HighBit": 11,
      "ImageOrientationPatient": [
        0.99771764816086,
        0.05446687900033,
        -0.0399105705337,
        -0.0570039282058,
        0.99622568821042,
        -0.0654593791505
      ],
      "ImagePositionPatient": [
        -798.32171046931,
        -894.24411092633,
        8.291931440839
      ],
      "ImageType": [
        "ORIGINAL",
        "PRIMARY",
        "FMRI",
        "NONE",
        "ND",
        "NORM",
        "MOSAIC"
      ],
      "ImagedNucleus": "1H",
      "ImagingFrequency": 123.252323,
      "InPlanePhaseEncodingDirection": "COL",
      "MRAcquisitionType": "2D",
      "MagneticFieldStrength": 3.0,
      "Manufacturer": "SIEMENS",
      "ManufacturerModelName": "Prisma",
      "Modality": "MR",
      "NumberOfAverages": 1.0,
      "NumberOfPhaseEncodingSteps": 96,
      "PercentPhaseFieldOfView": 100.0,
      "PercentSampling": 100.0,
      "PerformedProcedureStepStartTime": "181056.555000",
      "PhotometricInterpretation": "MONOCHROME2",
      "PixelBandwidth": 2365.0,
      "PixelRepresentation": 0,
      "PixelSpacing": [
        2.5,
        2.5
      ],
      "PositionReferenceIndicator": "",
      "ProtocolName": "func_run-01_task-localizer",
      "RepetitionTime": 1000.0,
      "Rows": 672,
      "SAR": 0.04752399678756,
      "SamplesPerPixel": 1,
      "ScanOptions": "FS",
      "ScanningSequence": "EP",
      "SequenceName": "*epfid2d1_96",
      "SequenceVariant": "SK",
      "SeriesDescription": "func_run-01_task-localizer",
      "SeriesNumber": 8,
      "SeriesTime": "182307.536000",
      "SliceLocation": -81.064904036985,
      "SliceThickness": 2.5,
      "SmallestImagePixelValue": 0,
      "SoftwareVersions": "syngo MR E11",
      "SpacingBetweenSlices": 2.5000000743965,
      "SpecificCharacterSet": "ISO_IR 100",
      "StudyID": "2",
      "StudyTime": "181056.504000",
      "TransmitCoilName": "Body",
      "VariableFlipAngleFlag": "N",
      "WindowCenterWidthExplanation": "Algo1",
      "dBdt": 0.0
    },
    "slices": {}
  },
  "time": {
    "samples": {
      "AcquisitionNumber": [
        1,
        2,
        3,
        4,
        5,
        6,
        7,
        8,
        9,
        10,
        11,
        12,
        13,
        14,
        15,
        16,
        17,
        18,
        19,
        20,
        21,
        22,
        23,
        24,
        25,
        26,
        27,
        28,
        29,
        30,
        31,
        32,
        33,
        34,
        35,
        36,
        37,
        38,
        39,
        40,
        41,
        42,
        43,
        44,
        45,
        46,
        47,
        48,
        49,
        50,
        51,
        52,
        53,
        54,
        55,
        56,
        57,
        58,
        59,
        60,
        61,
        62,
        63,
        64,
        65,
        66,
        67,
        68,
        69,
        70,
        71,
        72,
        73,
        74,
        75,
        76,
        77,
        78,
        79,
        80,
        81,
        82,
        83,
        84,
        85,
        86,
        87,
        88,
        89,
        90,
        91,
        92,
        93,
        94,
        95,
        96,
        97,
        98,
        99,
        100,
        101,
        102,
        103,
        104,
        105,
        106,
        107,
        108,
        109,
        110,
        111,
        112,
        113,
        114,
        115,
        116,
        117,
        118,
        119,
        120,
        121,
        122,
        123,
        124,
        125,
        126,
        127,
        128,
        129,
        130,
        131,
        132,
        133,
        134,
        135,
        136,
        137,
        138,
        139,
        140,
        141,
        142,
        143,
        144,
        145,
        146,
        147,
        148,
        149,
        150,
        151,
        152,
        153,
        154,
        155,
        156,
        157,
        158,
        159,
        160,
        161,
        162,
        163,
        164,
        165,
        166,
        167,
        168,
        169,
        170,
        171,
        172,
        173,
        174,
        175,
        176,
        177,
        178,
        179,
        180,
        181,
        182,
        183,
        184,
        185,
        186,
        187,
        188,
        189,
        190,
        191,
        192,
        193,
        194,
        195,
        196,
        197,
        198,
        199,
        200,
        201,
        202,
        203,
        204,
        205,
        206,
        207,
        208,
        209,
        210,
        211,
        212,
        213,
        214,
        215,
        216,
        217,
        218,
        219,
        220,
        221,
        222,
        223,
        224,
        225,
        226,
        227,
        228,
        229,
        230,
        231,
        232,
        233,
        234,
        235,
        236
      ],
      "AcquisitionTime": [
        "182306.650000",
        "182307.650000",
        "182308.650000",
        "182309.650000",
        "182310.650000",
        "182311.650000",
        "182312.650000",
        "182313.650000",
        "182314.650000",
        "182315.650000",
        "182316.650000",
        "182317.650000",
        "182318.650000",
        "182319.650000",
        "182320.650000",
        "182321.650000",
        "182322.650000",
        "182323.650000",
        "182324.650000",
        "182325.650000",
        "182326.650000",
        "182327.650000",
        "182328.650000",
        "182329.650000",
        "182330.650000",
        "182331.650000",
        "182332.650000",
        "182333.650000",
        "182334.650000",
        "182335.650000",
        "182336.650000",
        "182337.650000",
        "182338.650000",
        "182339.650000",
        "182340.650000",
        "182341.650000",
        "182342.650000",
        "182343.650000",
        "182344.650000",
        "182345.650000",
        "182346.650000",
        "182347.650000",
        "182348.650000",
        "182349.650000",
        "182350.650000",
        "182351.650000",
        "182352.650000",
        "182353.650000",
        "182354.650000",
        "182355.650000",
        "182356.650000",
        "182357.650000",
        "182358.650000",
        "182359.650000",
        "182400.650000",
        "182401.650000",
        "182402.650000",
        "182403.650000",
        "182404.650000",
        "182405.650000",
        "182406.650000",
        "182407.650000",
        "182408.650000",
        "182409.650000",
        "182410.650000",
        "182411.650000",
        "182412.650000",
        "182413.650000",
        "182414.650000",
        "182415.650000",
        "182416.650000",
        "182417.650000",
        "182418.650000",
        "182419.650000",
        "182420.650000",
        "182421.650000",
        "182422.650000",
        "182423.650000",
        "182424.650000",
        "182425.650000",
        "182426.650000",
        "182427.650000",
        "182428.650000",
        "182429.650000",
        "182430.650000",
        "182431.650000",
        "182432.650000",
        "182433.650000",
        "182434.650000",
        "182435.650000",
        "182436.650000",
        "182437.650000",
        "182438.650000",
        "182439.650000",
        "182440.650000",
        "182441.650000",
        "182442.650000",
        "182443.650000",
        "182444.650000",
        "182445.650000",
        "182446.650000",
        "182447.650000",
        "182448.650000",
        "182449.650000",
        "182450.650000",
        "182451.650000",
        "182452.650000",
        "182453.650000",
        "182454.650000",
        "182455.650000",
        "182456.650000",
        "182457.650000",
        "182458.650000",
        "182459.650000",
        "182500.650000",
        "182501.650000",
        "182502.650000",
        "182503.650000",
        "182504.650000",
        "182505.650000",
        "182506.650000",
        "182507.650000",
        "182508.650000",
        "182509.650000",
        "182510.650000",
        "182511.650000",
        "182512.650000",
        "182513.650000",
        "182514.650000",
        "182515.650000",
        "182516.650000",
        "182517.650000",
        "182518.650000",
        "182519.650000",
        "182520.650000",
        "182521.650000",
        "182522.650000",
        "182523.650000",
        "182524.650000",
        "182525.650000",
        "182526.650000",
        "182527.650000",
        "182528.650000",
        "182529.650000",
        "182530.650000",
        "182531.650000",
        "182532.650000",
        "182533.650000",
        "182534.650000",
        "182535.650000",
        "182536.650000",
        "182537.650000",
        "182538.650000",
        "182539.650000",
        "182540.650000",
        "182541.650000",
        "182542.650000",
        "182543.650000",
        "182544.650000",
        "182545.650000",
        "182546.650000",
        "182547.650000",
        "182548.650000",
        "182549.650000",
        "182550.650000",
        "182551.650000",
        "182552.650000",
        "182553.650000",
        "182554.650000",
        "182555.650000",
        "182556.650000",
        "182557.650000",
        "182558.650000",
        "182559.650000",
        "182600.650000",
        "182601.650000",
        "182602.650000",
        "182603.650000",
        "182604.650000",
        "182605.650000",
        "182606.650000",
        "182607.650000",
        "182608.650000",
        "182609.650000",
        "182610.650000",
        "182611.650000",
        "182612.650000",
        "182613.650000",
        "182614.650000",
        "182615.650000",
        "182616.650000",
        "182617.650000",
        "182618.650000",
        "182619.650000",
        "182620.650000",
        "182621.650000",
        "182622.650000",
        "182623.650000",
        "182624.650000",
        "182625.650000",
        "182626.650000",
        "182627.650000",
        "182628.650000",
        "182629.650000",
        "182630.650000",
        "182631.650000",
        "182632.650000",
        "182633.650000",
        "182634.650000",
        "182635.650000",
        "182636.650000",
        "182637.650000",
        "182638.650000",
        "182639.650000",
        "182640.650000",
        "182641.650000",
        "182642.650000",
        "182643.650000",
        "182644.650000",
        "182645.650000",
        "182646.650000",
        "182647.650000",
        "182648.650000",
        "182649.650000",
        "182650.650000",
        "182651.650000",
        "182652.650000",
        "182653.650000",
        "182654.650000",
        "182655.650000",
        "182656.650000",
        "182657.650000",
        "182658.650000",
        "182659.650000",
        "182700.650000",
        "182701.650000"
      ],
      "ContentTime": [
        "182307.542000",
        "182308.331000",
        "182309.387000",
        "182310.370000",
        "182311.386000",
        "182312.375000",
        "182313.328000",
        "182314.374000",
        "182315.338000",
        "182316.342000",
        "182317.344000",
        "182318.359000",
        "182319.354000",
        "182320.349000",
        "182321.408000",
        "182322.350000",
        "182323.358000",
        "182324.361000",
        "182325.341000",
        "182326.374000",
        "182327.337000",
        "182328.358000",
        "182329.340000",
        "182330.365000",
        "182331.363000",
        "182332.359000",
        "182333.342000",
        "182334.365000",
        "182335.374000",
        "182336.347000",
        "182337.340000",
        "182338.345000",
        "182339.371000",
        "182340.359000",
        "182341.422000",
        "182342.361000",
        "182343.342000",
        "182344.370000",
        "182345.343000",
        "182346.365000",
        "182347.377000",
        "182348.363000",
        "182349.356000",
        "182350.345000",
        "182351.343000",
        "182352.431000",
        "182353.371000",
        "182354.365000",
        "182355.367000",
        "182356.357000",
        "182357.350000",
        "182358.374000",
        "182359.352000",
        "182400.357000",
        "182401.369000",
        "182402.339000",
        "182403.347000",
        "182404.359000",
        "182405.350000",
        "182406.352000",
        "182407.340000",
        "182408.338000",
        "182409.354000",
        "182410.372000",
        "182411.353000",
        "182412.361000",
        "182413.358000",
        "182414.341000",
        "182415.377000",
        "182416.366000",
        "182417.351000",
        "182418.328000",
        "182419.384000",
        "182420.339000",
        "182421.370000",
        "182422.432000",
        "182423.356000",
        "182424.380000",
        "182425.344000",
        "182426.346000",
        "182427.328000",
        "182428.366000",
        "182429.352000",
        "182430.365000",
        "182431.354000",
        "182432.334000",
        "182433.375000",
        "182434.341000",
        "182435.361000",
        "182436.341000",
        "182437.367000",
        "182438.352000",
        "182439.373000",
        "182440.370000",
        "182441.370000",
        "182442.361000",
        "182443.358000",
        "182444.357000",
        "182445.383000",
        "182446.330000",
        "182447.354000",
        "182448.349000",
        "182449.353000",
        "182450.361000",
        "182451.367000",
        "182452.352000",
        "182453.371000",
        "182454.366000",
        "182455.371000",
        "182456.360000",
        "182457.375000",
        "182458.359000",
        "182459.368000",
        "182500.369000",
        "182501.378000",
        "182502.375000",
        "182503.321000",
        "182504.399000",
        "182505.366000",
        "182506.363000",
        "182507.369000",
        "182508.391000",
        "182509.374000",
        "182510.370000",
        "182511.398000",
        "182512.372000",
        "182513.346000",
        "182514.390000",
        "182515.355000",
        "182516.343000",
        "182517.364000",
        "182518.350000",
        "182519.387000",
        "182520.364000",
        "182521.361000",
        "182522.363000",
        "182523.390000",
        "182524.367000",
        "182525.368000",
        "182526.367000",
        "182527.349000",
        "182528.340000",
        "182529.374000",
        "182530.353000",
        "182531.353000",
        "182532.395000",
        "182533.399000",
        "182534.376000",
        "182535.334000",
        "182536.365000",
        "182537.354000",
        "182538.355000",
        "182539.348000",
        "182540.353000",
        "182541.375000",
        "182542.372000",
        "182543.342000",
        "182544.346000",
        "182545.366000",
        "182546.359000",
        "182547.359000",
        "182548.364000",
        "182549.356000",
        "182550.346000",
        "182551.366000",
        "182552.339000",
        "182553.362000",
        "182554.365000",
        "182555.365000",
        "182556.360000",
        "182557.377000",
        "182558.372000",
        "182559.345000",
        "182600.365000",
        "182601.371000",
        "182602.343000",
        "182603.411000",
        "182604.364000",
        "182605.376000",
        "182606.356000",
        "182607.382000",
        "182608.358000",
        "182609.352000",
        "182610.370000",
        "182611.354000",
        "182612.367000",
        "182613.353000",
        "182614.357000",
        "182615.357000",
        "182616.359000",
        "182617.403000",
        "182618.388000",
        "182619.354000",
        "182620.375000",
        "182621.394000",
        "182622.359000",
        "182623.374000",
        "182624.351000",
        "182625.372000",
        "182626.370000",
        "182627.371000",
        "182628.377000",
        "182629.375000",
        "182630.389000",
        "182631.382000",
        "182632.391000",
        "182633.354000",
        "182634.405000",
        "182635.360000",
        "182636.351000",
        "182637.368000",
        "182638.337000",
        "182639.378000",
        "182640.357000",
        "182641.352000",
        "182642.350000",
        "182643.369000",
        "182644.376000",
        "182645.373000",
        "182646.387000",
        "182647.371000",
        "182648.374000",
        "182649.406000",
        "182650.341000",
        "182651.387000",
        "182652.390000",
        "182653.349000",
        "182654.358000",
        "182655.372000",
        "182656.350000",
        "182657.374000",
        "182658.365000",
        "182659.365000",
        "182700.364000",
        "182701.351000",
        "182702.364000"
      ],
      "InstanceCreationTime": [
        "182307.542000",
        "182308.331000",
        "182309.387000",
        "182310.370000",
        "182311.386000",
        "182312.375000",
        "182313.328000",
        "182314.374000",
        "182315.338000",
        "182316.342000",
        "182317.344000",
        "182318.359000",
        "182319.354000",
        "182320.349000",
        "182321.408000",
        "182322.350000",
        "182323.358000",
        "182324.361000",
        "182325.341000",
        "182326.374000",
        "182327.337000",
        "182328.358000",
        "182329.340000",
        "182330.365000",
        "182331.363000",
        "182332.359000",
        "182333.342000",
        "182334.365000",
        "182335.374000",
        "182336.347000",
        "182337.340000",
        "182338.345000",
        "182339.371000",
        "182340.359000",
        "182341.422000",
        "182342.361000",
        "182343.342000",
        "182344.370000",
        "182345.343000",
        "182346.365000",
        "182347.377000",
        "182348.363000",
        "182349.356000",
        "182350.345000",
        "182351.343000",
        "182352.431000",
        "182353.371000",
        "182354.365000",
        "182355.367000",
        "182356.357000",
        "182357.350000",
        "182358.374000",
        "182359.352000",
        "182400.357000",
        "182401.369000",
        "182402.339000",
        "182403.347000",
        "182404.359000",
        "182405.350000",
        "182406.352000",
        "182407.340000",
        "182408.338000",
        "182409.354000",
        "182410.372000",
        "182411.353000",
        "182412.361000",
        "182413.358000",
        "182414.341000",
        "182415.377000",
        "182416.366000",
        "182417.351000",
        "182418.328000",
        "182419.384000",
        "182420.339000",
        "182421.370000",
        "182422.432000",
        "182423.356000",
        "182424.380000",
        "182425.344000",
        "182426.346000",
        "182427.328000",
        "182428.366000",
        "182429.352000",
        "182430.365000",
        "182431.354000",
        "182432.334000",
        "182433.375000",
        "182434.341000",
        "182435.361000",
        "182436.341000",
        "182437.367000",
        "182438.352000",
        "182439.373000",
        "182440.370000",
        "182441.370000",
        "182442.361000",
        "182443.358000",
        "182444.357000",
        "182445.383000",
        "182446.330000",
        "182447.354000",
        "182448.349000",
        "182449.353000",
        "182450.361000",
        "182451.367000",
        "182452.352000",
        "182453.371000",
        "182454.366000",
        "182455.371000",
        "182456.360000",
        "182457.375000",
        "182458.359000",
        "182459.368000",
        "182500.369000",
        "182501.378000",
        "182502.375000",
        "182503.321000",
        "182504.399000",
        "182505.366000",
        "182506.363000",
        "182507.369000",
        "182508.391000",
        "182509.374000",
        "182510.370000",
        "182511.398000",
        "182512.372000",
        "182513.346000",
        "182514.390000",
        "182515.355000",
        "182516.343000",
        "182517.364000",
        "182518.350000",
        "182519.387000",
        "182520.364000",
        "182521.361000",
        "182522.363000",
        "182523.390000",
        "182524.367000",
        "182525.368000",
        "182526.367000",
        "182527.349000",
        "182528.340000",
        "182529.374000",
        "182530.353000",
        "182531.353000",
        "182532.395000",
        "182533.399000",
        "182534.376000",
        "182535.334000",
        "182536.365000",
        "182537.354000",
        "182538.355000",
        "182539.348000",
        "182540.353000",
        "182541.375000",
        "182542.372000",
        "182543.342000",
        "182544.346000",
        "182545.366000",
        "182546.359000",
        "182547.359000",
        "182548.364000",
        "182549.356000",
        "182550.346000",
        "182551.366000",
        "182552.339000",
        "182553.362000",
        "182554.365000",
        "182555.365000",
        "182556.360000",
        "182557.377000",
        "182558.372000",
        "182559.345000",
        "182600.365000",
        "182601.371000",
        "182602.343000",
        "182603.411000",
        "182604.364000",
        "182605.376000",
        "182606.356000",
        "182607.382000",
        "182608.358000",
        "182609.352000",
        "182610.370000",
        "182611.354000",
        "182612.367000",
        "182613.353000",
        "182614.357000",
        "182615.357000",
        "182616.359000",
        "182617.403000",
        "182618.388000",
        "182619.354000",
        "182620.375000",
        "182621.394000",
        "182622.359000",
        "182623.374000",
        "182624.351000",
        "182625.372000",
        "182626.370000",
        "182627.371000",
        "182628.377000",
        "182629.375000",
        "182630.389000",
        "182631.382000",
        "182632.391000",
        "182633.354000",
        "182634.405000",
        "182635.360000",
        "182636.351000",
        "182637.368000",
        "182638.337000",
        "182639.378000",
        "182640.357000",
        "182641.352000",
        "182642.350000",
        "182643.369000",
        "182644.376000",
        "182645.373000",
        "182646.387000",
        "182647.371000",
        "182648.374000",
        "182649.406000",
        "182650.341000",
        "182651.387000",
        "182652.390000",
        "182653.349000",
        "182654.358000",
        "182655.372000",
        "182656.350000",
        "182657.374000",
        "182658.365000",
        "182659.365000",
        "182700.364000",
        "182701.351000",
        "182702.364000"
      ],
      "InstanceNumber": [
        1,
        2,
        3,
        4,
        5,
        6,
        7,
        8,
        9,
        10,
        11,
        12,
        13,
        14,
        15,
        16,
        17,
        18,
        19,
        20,
        21,
        22,
        23,
        24,
        25,
        26,
        27,
        28,
        29,
        30,
        31,
        32,
        33,
        34,
        35,
        36,
        37,
        38,
        39,
        40,
        41,
        42,
        43,
        44,
        45,
        46,
        47,
        48,
        49,
        50,
        51,
        52,
        53,
        54,
        55,
        56,
        57,
        58,
        59,
        60,
        61,
        62,
        63,
        64,
        65,
        66,
        67,
        68,
        69,
        70,
        71,
        72,
        73,
        74,
        75,
        76,
        77,
        78,
        79,
        80,
        81,
        82,
        83,
        84,
        85,
        86,
        87,
        88,
        89,
        90,
        91,
        92,
        93,
        94,
        95,
        96,
        97,
        98,
        99,
        100,
        101,
        102,
        103,
        104,
        105,
        106,
        107,
        108,
        109,
        110,
        111,
        112,
        113,
        114,
        115,
        116,
        117,
        118,
        119,
        120,
        121,
        122,
        123,
        124,
        125,
        126,
        127,
        128,
        129,
        130,
        131,
        132,
        133,
        134,
        135,
        136,
        137,
        138,
        139,
        140,
        141,
        142,
        143,
        144,
        145,
        146,
        147,
        148,
        149,
        150,
        151,
        152,
        153,
        154,
        155,
        156,
        157,
        158,
        159,
        160,
        161,
        162,
        163,
        164,
        165,
        166,
        167,
        168,
        169,
        170,
        171,
        172,
        173,
        174,
        175,
        176,
        177,
        178,
        179,
        180,
        181,
        182,
        183,
        184,
        185,
        186,
        187,
        188,
        189,
        190,
        191,
        192,
        193,
        194,
        195,
        196,
        197,
        198,
        199,
        200,
        201,
        202,
        203,
        204,
        205,
        206,
        207,
        208,
        209,
        210,
        211,
        212,
        213,
        214,
        215,
        216,
        217,
        218,
        219,
        220,
        221,
        222,
        223,
        224,
        225,
        226,
        227,
        228,
        229,
        230,
        231,
        232,
        233,
        234,
        235,
        236
      ],
      "LargestImagePixelValue": [
        907,
        1456,
        1540,
        871,
        995,
        1213,
        1024,
        882,
        1068,
        1053,
        1685,
        1204,
        918,
        1154,
        1698,
        1206,
        877,
