{
  "AcquisitionMatrixPE": 96,
  "AcquisitionNumber": 1,
  "AcquisitionTime": "18:59:25.582500",
  "BandwidthPerPixelPhaseEncode": 18.939,
  "BaseResolution": 96,
  "BodyPartExamined": "BRAIN",
  "ConsistencyInfo": "N4_VE11C_LATEST_20160120",
  "ConversionSoftware": "dcm2niix",
  "ConversionSoftwareVersion": "v1.0.20171215 (OpenJPEG build) GCC6.3.0",
  "DerivedVendorReportedEchoSpacing": 0.000550011,
  "DeviceSerialNumber": "66112",
  "DwellTime": 2.2e-06,
  "EchoTime": 0.033,
  "EchoTrainLength": 96,
  "EffectiveEchoSpacing": 0.000550011,
  "FlipAngle": 59,
  "ImageOrientationPatientDICOM": [
    0.997718,
    0.0544669,
    -0.0399106,
    -0.0570039,
    0.996226,
    -0.0654594
  ],
  "ImageType": [
    "ORIGINAL",
    "PRIMARY",
    "FMRI",
    "NONE",
    "ND",
    "NORM",
    "MOSAIC"
  ],
  "InPlanePhaseEncodingDirectionDICOM": "COL",
  "InstitutionAddress": "Maynard_3_Hanover_NH_US_03755",
  "InstitutionName": "Dartmouth_College_-_PBS",
  "InstitutionalDepartmentName": "Department",
  "MRAcquisitionType": "2D",
  "MagneticFieldStrength": 3,
  "Manufacturer": "Siemens",
  "ManufacturersModelName": "Prisma",
  "Modality": "MR",
  "MultibandAccelerationFactor": 4,
  "PatientPosition": "HFS",
  "PercentPhaseFOV": 100,
  "PhaseEncodingDirection": "j-",
  "PhaseEncodingSteps": 96,
  "PhaseResolution": 1,
  "PixelBandwidth": 2365,
  "ProcedureStepDescription": "Gobbini_Matteo_1038_hyperface",
  "ProtocolName": "func_run-08_task-visualmemory",
  "PulseSequenceDetails": "%SiemensSeq%_ep2d_bold",
  "ReceiveCoilActiveElements": "HEA;HEP",
  "ReceiveCoilName": "Head_32",
  "ReconMatrixPE": 96,
  "RepetitionTime": 1,
  "SAR": 0.0476379,
  "ScanOptions": "FS",
  "ScanningSequence": "EP",
  "SequenceName": "_epfid2d1_96",
  "SequenceVariant": "SK",
  "SeriesDescription": "func_run-08_task-visualmemory",
  "SeriesNumber": 57,
  "ShimSetting": [
    4128,
    -7689,
    -7304,
    680,
    -4,
    -89,
    37,
    93
  ],
  "SliceThickness": 2.5,
  "SliceTiming": [
    0.735,
    0,
    0.49,
    0.0825,
    0.5725,
    0.165,
    0.655,
    0.3275,
    0.8175,
    0.41,
    0.9,
    0.245,
    0.735,
    0,
    0.49,
    0.0825,
    0.5725,
    0.165,
    0.655,
    0.3275,
    0.8175,
    0.41,
    0.9,
    0.245,
    0.735,
    0,
    0.49,
    0.0825,
    0.5725,
    0.165,
    0.655,
    0.3275,
    0.8175,
    0.41,
    0.9,
    0.245,
    0.735,
    0,
    0.49,
    0.0825,
    0.5725,
    0.165,
    0.655,
    0.3275,
    0.8175,
    0.41,
    0.9,
    0.245
  ],
  "SoftwareVersions": "syngo_MR_E11",
  "SpacingBetweenSlices": 2.5,
  "StationName": "AWP66112",
  "TotalReadoutTime": 0.0522511,
  "TxRefAmp": 257.943,
  "dcmmeta_affine": [
    [
      -2.4942941665649414,
      -0.1425098180770874,
      -0.09048642218112946,
      134.5462646484375
    ],
    [
      -0.13616719841957092,
      2.4905641078948975,
      -0.16896259784698486,
      -98.85813903808594
    ],
    [
      -0.09977642446756363,
      0.16364844143390656,
      2.4926419258117676,
      -83.12103271484375
    ],
    [
      0.0,
      0.0,
      0.0,
      1.0
    ]
  ],
  "dcmmeta_reorient_transform": [
    [
      0.0,
      -1.0,
      0.0,
      95.0
    ],
    [
      1.0,
      0.0,
      0.0,
      0.0
    ],
    [
      0.0,
      0.0,
      1.0,
      0.0
    ],
    [
      0.0,
      0.0,
      0.0,
      1.0
    ]
  ],
  "dcmmeta_shape": [
    96,
    96,
    48,
    288
  ],
  "dcmmeta_slice_dim": 2,
  "dcmmeta_version": 0.6,
  "global": {
    "const": {
      "AccessionNumber": "A001343",
      "AcquisitionMatrix": [
        96,
        0,
        0,
        96
      ],
      "AngioFlag": "N",
      "BitsAllocated": 16,
      "BitsStored": 12,
      "BodyPartExamined": "BRAIN",
      "Columns": 672,
      "EchoNumbers": 1,
      "EchoTime": 33.0,
      "EchoTrainLength": 96,
      "FlipAngle": 59.0,
      "HighBit": 11,
      "ImageOrientationPatient": [
        0.99771764816086,
        0.05446687900033,
        -0.0399105705337,
        -0.0570039282058,
        0.99622568821042,
        -0.0654593791505
      ],
      "ImagePositionPatient": [
        -798.32171046931,
        -894.24411092633,
        8.291931440839
      ],
      "ImageType": [
        "ORIGINAL",
        "PRIMARY",
        "FMRI",
        "NONE",
        "ND",
        "NORM",
        "MOSAIC"
      ],
      "ImagedNucleus": "1H",
      "ImagingFrequency": 123.25233,
      "InPlanePhaseEncodingDirection": "COL",
      "MRAcquisitionType": "2D",
      "MagneticFieldStrength": 3.0,
      "Manufacturer": "SIEMENS",
      "ManufacturerModelName": "Prisma",
      "Modality": "MR",
      "NumberOfAverages": 1.0,
      "NumberOfPhaseEncodingSteps": 96,
      "PercentPhaseFieldOfView": 100.0,
      "PercentSampling": 100.0,
      "PerformedProcedureStepStartTime": "181056.555000",
      "PhotometricInterpretation": "MONOCHROME2",
      "PixelBandwidth": 2365.0,
      "PixelRepresentation": 0,
      "PixelSpacing": [
        2.5,
        2.5
      ],
      "PositionReferenceIndicator": "",
      "ProtocolName": "func_run-08_task-visualmemory",
      "RepetitionTime": 1000.0,
      "Rows": 672,
      "SAR": 0.04763790673111,
      "SamplesPerPixel": 1,
      "ScanOptions": "FS",
      "ScanningSequence": "EP",
      "SequenceName": "*epfid2d1_96",
      "SequenceVariant": "SK",
      "SeriesDescription": "func_run-08_task-visualmemory",
      "SeriesNumber": 57,
      "SeriesTime": "185926.918000",
      "SliceLocation": -81.064904036985,
      "SliceThickness": 2.5,
      "SmallestImagePixelValue": 0,
      "SoftwareVersions": "syngo MR E11",
      "SpacingBetweenSlices": 2.5000000743965,
      "SpecificCharacterSet": "ISO_IR 100",
      "StudyID": "2",
      "StudyTime": "181056.504000",
      "TransmitCoilName": "Body",
      "VariableFlipAngleFlag": "N",
      "WindowCenterWidthExplanation": "Algo1",
      "dBdt": 0.0
    },
    "slices": {}
  },
  "time": {
    "samples": {
      "AcquisitionNumber": [
        1,
        2,
        3,
        4,
        5,
        6,
        7,
        8,
        9,
        10,
        11,
        12,
        13,
        14,
        15,
        16,
        17,
        18,
        19,
        20,
        21,
        22,
        23,
        24,
        25,
        26,
        27,
        28,
        29,
        30,
        31,
        32,
        33,
        34,
        35,
        36,
        37,
        38,
        39,
        40,
        41,
        42,
        43,
        44,
        45,
        46,
        47,
        48,
        49,
        50,
        51,
        52,
        53,
        54,
        55,
        56,
        57,
        58,
        59,
        60,
        61,
        62,
        63,
        64,
        65,
        66,
        67,
        68,
        69,
        70,
        71,
        72,
        73,
        74,
        75,
        76,
        77,
        78,
        79,
        80,
        81,
        82,
        83,
        84,
        85,
        86,
        87,
        88,
        89,
        90,
        91,
        92,
        93,
        94,
        95,
        96,
        97,
        98,
        99,
        100,
        101,
        102,
        103,
        104,
        105,
        106,
        107,
        108,
        109,
        110,
        111,
        112,
        113,
        114,
        115,
        116,
        117,
        118,
        119,
        120,
        121,
        122,
        123,
        124,
        125,
        126,
        127,
        128,
        129,
        130,
        131,
        132,
        133,
        134,
        135,
        136,
        137,
        138,
        139,
        140,
        141,
        142,
        143,
        144,
        145,
        146,
        147,
        148,
        149,
        150,
        151,
        152,
        153,
        154,
        155,
        156,
        157,
        158,
        159,
        160,
        161,
        162,
        163,
        164,
        165,
        166,
        167,
        168,
        169,
        170,
        171,
        172,
        173,
        174,
        175,
        176,
        177,
        178,
        179,
        180,
        181,
        182,
        183,
        184,
        185,
        186,
        187,
        188,
        189,
        190,
        191,
        192,
        193,
        194,
        195,
        196,
        197,
        198,
        199,
        200,
        201,
        202,
        203,
        204,
        205,
        206,
        207,
        208,
        209,
        210,
        211,
        212,
        213,
        214,
        215,
        216,
        217,
        218,
        219,
        220,
        221,
        222,
        223,
        224,
        225,
        226,
        227,
        228,
        229,
        230,
        231,
        232,
        233,
        234,
        235,
        236,
        237,
        238,
        239,
        240,
        241,
        242,
        243,
        244,
        245,
        246,
        247,
        248,
        249,
        250,
        251,
        252,
        253,
        254,
        255,
        256,
        257,
        258,
        259,
        260,
        261,
        262,
        263,
        264,
        265,
        266,
        267,
        268,
        269,
        270,
        271,
        272,
        273,
        274,
        275,
        276,
        277,
        278,
        279,
        280,
        281,
        282,
        283,
        284,
        285,
        286,
        287,
        288
      ],
      "AcquisitionTime": [
        "185925.582500",
        "185926.582500",
        "185927.582500",
        "185928.582500",
        "185929.582500",
        "185930.582500",
        "185931.582500",
        "185932.582500",
        "185933.582500",
        "185934.582500",
        "185935.582500",
        "185936.582500",
        "185937.582500",
        "185938.582500",
        "185939.582500",
        "185940.582500",
        "185941.582500",
        "185942.582500",
        "185943.582500",
        "185944.582500",
        "185945.582500",
        "185946.582500",
        "185947.582500",
        "185948.582500",
        "185949.582500",
        "185950.582500",
        "185951.582500",
        "185952.582500",
        "185953.582500",
        "185954.582500",
        "185955.582500",
        "185956.582500",
        "185957.582500",
        "185958.582500",
        "185959.582500",
        "190000.582500",
        "190001.582500",
        "190002.582500",
        "190003.582500",
        "190004.582500",
        "190005.582500",
        "190006.582500",
        "190007.582500",
        "190008.582500",
        "190009.582500",
        "190010.582500",
        "190011.582500",
        "190012.582500",
        "190013.582500",
        "190014.582500",
        "190015.582500",
        "190016.582500",
        "190017.582500",
        "190018.582500",
        "190019.582500",
        "190020.582500",
        "190021.582500",
        "190022.582500",
        "190023.582500",
        "190024.582500",
        "190025.582500",
        "190026.582500",
        "190027.582500",
        "190028.582500",
        "190029.582500",
        "190030.582500",
        "190031.582500",
        "190032.582500",
        "190033.582500",
        "190034.582500",
        "190035.582500",
        "190036.582500",
        "190037.582500",
        "190038.582500",
        "190039.582500",
        "190040.582500",
        "190041.582500",
        "190042.582500",
        "190043.582500",
        "190044.582500",
        "190045.582500",
        "190046.582500",
        "190047.582500",
        "190048.582500",
        "190049.582500",
        "190050.582500",
        "190051.582500",
        "190052.582500",
        "190053.582500",
        "190054.582500",
        "190055.582500",
        "190056.582500",
        "190057.582500",
        "190058.582500",
        "190059.582500",
        "190100.582500",
        "190101.582500",
        "190102.582500",
        "190103.582500",
        "190104.582500",
        "190105.582500",
        "190106.582500",
        "190107.582500",
        "190108.582500",
        "190109.582500",
        "190110.582500",
        "190111.582500",
        "190112.582500",
        "190113.582500",
        "190114.582500",
        "190115.582500",
        "190116.582500",
        "190117.582500",
        "190118.582500",
        "190119.582500",
        "190120.582500",
        "190121.582500",
        "190122.582500",
        "190123.582500",
        "190124.582500",
        "190125.582500",
        "190126.582500",
        "190127.582500",
        "190128.582500",
        "190129.582500",
        "190130.582500",
        "190131.582500",
        "190132.582500",
        "190133.582500",
        "190134.582500",
        "190135.582500",
        "190136.582500",
        "190137.582500",
        "190138.582500",
        "190139.582500",
        "190140.582500",
        "190141.582500",
        "190142.582500",
        "190143.582500",
        "190144.582500",
        "190145.582500",
        "190146.582500",
        "190147.582500",
        "190148.582500",
        "190149.582500",
        "190150.582500",
        "190151.582500",
        "190152.582500",
        "190153.582500",
        "190154.582500",
        "190155.582500",
        "190156.582500",
        "190157.582500",
        "190158.582500",
        "190159.582500",
        "190200.582500",
        "190201.582500",
        "190202.582500",
        "190203.582500",
        "190204.582500",
        "190205.582500",
        "190206.582500",
        "190207.582500",
        "190208.582500",
        "190209.582500",
        "190210.582500",
        "190211.582500",
        "190212.582500",
        "190213.582500",
        "190214.582500",
        "190215.582500",
        "190216.582500",
        "190217.582500",
        "190218.582500",
        "190219.582500",
        "190220.582500",
        "190221.582500",
        "190222.582500",
        "190223.582500",
        "190224.582500",
        "190225.582500",
        "190226.582500",
        "190227.582500",
        "190228.582500",
        "190229.582500",
        "190230.582500",
        "190231.582500",
        "190232.582500",
        "190233.582500",
        "190234.582500",
        "190235.582500",
        "190236.582500",
        "190237.582500",
        "190238.582500",
        "190239.582500",
        "190240.582500",
        "190241.582500",
        "190242.582500",
        "190243.582500",
        "190244.582500",
        "190245.582500",
        "190246.582500",
        "190247.582500",
        "190248.582500",
        "190249.582500",
        "190250.582500",
        "190251.582500",
        "190252.582500",
        "190253.582500",
        "190254.582500",
        "190255.582500",
        "190256.582500",
        "190257.582500",
        "190258.582500",
        "190259.582500",
        "190300.582500",
        "190301.582500",
        "190302.582500",
        "190303.582500",
        "190304.582500",
        "190305.582500",
        "190306.582500",
        "190307.582500",
        "190308.582500",
        "190309.582500",
        "190310.582500",
        "190311.582500",
        "190312.582500",
        "190313.582500",
        "190314.582500",
        "190315.582500",
        "190316.582500",
        "190317.582500",
        "190318.582500",
        "190319.582500",
        "190320.582500",
        "190321.582500",
        "190322.582500",
        "190323.582500",
        "190324.582500",
        "190325.582500",
        "190326.582500",
        "190327.582500",
        "190328.582500",
        "190329.582500",
        "190330.582500",
        "190331.582500",
        "190332.582500",
        "190333.582500",
        "190334.582500",
        "190335.582500",
        "190336.582500",
        "190337.582500",
        "190338.582500",
        "190339.582500",
        "190340.582500",
        "190341.582500",
        "190342.582500",
        "190343.582500",
        "190344.582500",
        "190345.582500",
        "190346.582500",
        "190347.582500",
        "190348.582500",
        "190349.582500",
        "190350.582500",
        "190351.582500",
        "190352.582500",
        "190353.582500",
        "190354.582500",
        "190355.582500",
        "190356.582500",
        "190357.582500",
        "190358.582500",
        "190359.582500",
        "190400.582500",
        "190401.582500",
        "190402.582500",
        "190403.582500",
        "190404.582500",
        "190405.582500",
        "190406.582500",
        "190407.582500",
        "190408.582500",
        "190409.582500",
        "190410.582500",
        "190411.582500",
        "190412.582500"
      ],
      "ContentTime": [
        "185926.921000",
        "185927.746000",
        "185928.722000",
        "185929.782000",
        "185930.746000",
        "185931.792000",
        "185932.731000",
        "185933.776000",
        "185934.737000",
        "185935.753000",
        "185936.737000",
        "185937.735000",
        "185938.717000",
        "185939.739000",
        "185940.732000",
        "185941.734000",
        "185942.744000",
        "185943.751000",
        "185944.746000",
        "185945.726000",
        "185946.749000",
        "185947.734000",
        "185948.781000",
        "185949.755000",
        "185950.742000",
        "185951.731000",
        "185952.741000",
        "185953.741000",
        "185954.771000",
        "185955.755000",
        "185956.777000",
        "185957.746000",
        "185958.758000",
        "185959.711000",
        "190000.708000",
        "190001.757000",
        "190002.785000",
        "190003.729000",
        "190004.738000",
        "190005.734000",
        "190006.709000",
        "190007.711000",
        "190008.769000",
        "190009.764000",
        "190010.743000",
        "190011.736000",
        "190012.729000",
        "190013.732000",
        "190014.740000",
        "190015.739000",
        "190016.731000",
        "190017.743000",
        "190018.745000",
        "190019.723000",
        "190020.712000",
        "190021.740000",
        "190022.730000",
        "190023.720000",
        "190024.714000",
        "190025.745000",
        "190026.781000",
        "190027.767000",
        "190028.743000",
        "190029.755000",
        "190030.711000",
        "190031.742000",
        "190032.758000",
        "190033.758000",
        "190034.748000",
        "190035.730000",
        "190036.729000",
        "190037.725000",
        "190038.735000",
        "190039.725000",
        "190040.742000",
        "190041.769000",
        "190042.734000",
        "190043.748000",
        "190044.735000",
        "190045.750000",
        "190046.785000",
        "190047.776000",
        "190048.802000",
        "190049.758000",
        "190050.751000",
        "190051.743000",
        "190052.759000",
        "190053.757000",
        "190054.735000",
        "190055.709000",
        "190056.752000",
        "190057.725000",
        "190058.725000",
        "190059.734000",
        "190100.723000",
        "190101.746000",
        "190102.739000",
        "190103.738000",
        "190104.758000",
        "190105.734000",
        "190106.749000",
        "190107.757000",
        "190108.757000",
        "190109.779000",
        "190110.718000",
        "190111.746000",
        "190112.739000",
        "190113.753000",
        "190114.762000",
        "190115.725000",
        "190116.755000",
        "190117.746000",
        "190118.741000",
        "190119.762000",
        "190120.754000",
        "190121.760000",
        "190122.755000",
        "190123.745000",
        "190124.743000",
        "190125.755000",
        "190126.739000",
        "190127.728000",
        "190128.738000",
        "190129.749000",
        "190130.705000",
        "190131.770000",
        "190132.716000",
        "190133.748000",
        "190134.772000",
        "190135.734000",
        "190136.719000",
        "190137.758000",
        "190138.772000",
        "190139.737000",
        "190140.759000",
        "190141.766000",
        "190142.757000",
        "190143.821000",
        "190144.757000",
        "190145.729000",
        "190146.782000",
        "190147.752000",
        "190148.753000",
        "190149.733000",
        "190150.752000",
        "190151.730000",
        "190152.737000",
        "190153.718000",
        "190154.724000",
        "190155.788000",
        "190156.752000",
        "190157.760000",
        "190158.810000",
        "190159.737000",
        "190200.737000",
        "190201.745000",
        "190202.738000",
        "190203.735000",
        "190204.762000",
        "190205.729000",
        "190206.742000",
        "190207.730000",
        "190208.818000",
        "190209.769000",
        "190210.758000",
        "190211.748000",
        "190212.751000",
        "190213.771000",
        "190214.760000",
        "190215.748000",
        "190216.765000",
        "190217.764000",
        "190218.740000",
        "190219.745000",
        "190220.781000",
        "190221.723000",
        "190222.736000",
        "190223.756000",
        "190224.749000",
        "190225.742000",
        "190226.745000",
        "190227.765000",
        "190228.725000",
        "190229.727000",
        "190230.719000",
        "190231.747000",
        "190232.747000",
        "190233.720000",
        "190234.748000",
        "190235.756000",
        "190236.730000",
        "190237.761000",
        "190238.794000",
        "190239.771000",
        "190240.723000",
        "190241.740000",
        "190242.711000",
        "190243.797000",
        "190244.720000",
        "190245.824000",
        "190246.735000",
        "190247.761000",
        "190248.731000",
        "190249.762000",
        "190250.731000",
        "190251.732000",
        "190252.730000",
        "190253.756000",
        "190254.747000",
        "190255.768000",
        "190256.759000",
        "190257.834000",
        "190258.752000",
        "190259.818000",
        "190300.753000",
        "190301.727000",
        "190302.777000",
        "190303.752000",
        "190304.804000",
        "190305.753000",
        "190306.767000",
        "190307.757000",
        "190308.777000",
        "190309.740000",
        "190310.731000",
        "190311.771000",
        "190312.718000",
        "190313.724000",
        "190314.715000",
        "190315.759000",
        "190316.738000",
        "190317.708000",
        "190318.740000",
        "190319.731000",
        "190320.729000",
        "190321.744000",
        "190322.749000",
        "190323.742000",
        "190324.768000",
        "190325.730000",
        "190326.736000",
        "190327.745000",
        "190328.762000",
        "190329.742000",
        "190330.759000",
        "190331.744000",
        "190332.753000",
        "190333.754000",
        "190334.735000",
        "190335.718000",
        "190336.711000",
        "190337.753000",
        "190338.751000",
        "190339.740000",
        "190340.747000",
        "190341.721000",
        "190342.743000",
        "190343.721000",
        "190344.725000",
        "190345.758000",
        "190346.741000",
        "190347.750000",
        "190348.737000",
        "190349.733000",
        "190350.759000",
        "190351.779000",
        "190352.744000",
        "190353.764000",
        "190354.755000",
        "190355.752000",
        "190356.748000",
        "190357.760000",
        "190358.771000",
        "190359.752000",
        "190400.736000",
        "190401.770000",
        "190402.741000",
        "190403.737000",
        "190404.747000",
        "190405.746000",
        "190406.737000",
        "190407.733000",
        "190408.755000",
        "190409.724000",
        "190410.735000",
        "190411.749000",
        "190412.747000",
        "190413.737000"
      ],
      "InstanceCreationTime": [
        "185926.921000",
        "185927.746000",
        "185928.722000",
        "185929.782000",
        "185930.746000",
        "185931.792000",
        "185932.731000",
        "185933.776000",
        "185934.737000",
        "185935.753000",
        "185936.737000",
        "185937.735000",
        "185938.717000",
        "185939.739000",
        "185940.732000",
        "185941.734000",
        "185942.744000",
        "185943.751000",
        "185944.746000",
        "185945.726000",
        "185946.749000",
        "185947.734000",
        "185948.781000",
        "185949.755000",
        "185950.742000",
        "185951.731000",
        "185952.741000",
        "185953.741000",
        "185954.771000",
        "185955.755000",
        "185956.777000",
        "185957.746000",
        "185958.758000",
        "185959.711000",
        "190000.708000",
        "190001.757000",
        "190002.785000",
        "190003.729000",
        "190004.738000",
        "190005.734000",
        "190006.709000",
        "190007.711000",
        "190008.769000",
        "190009.764000",
        "190010.743000",
        "190011.736000",
        "190012.729000",
        "190013.732000",
        "190014.740000",
        "190015.739000",
        "190016.731000",
        "190017.743000",
        "190018.745000",
        "190019.723000",
        "190020.712000",
        "190021.740000",
        "190022.730000",
        "190023.720000",
        "190024.714000",
        "190025.745000",
        "190026.781000",
        "190027.767000",
        "190028.743000",
        "190029.755000",
        "190030.711000",
        "190031.742000",
        "190032.758000",
        "190033.758000",
        "190034.748000",
        "190035.730000",
        "190036.729000",
        "190037.725000",
        "190038.735000",
        "190039.725000",
        "190040.742000",
        "190041.769000",
        "190042.734000",
        "190043.748000",
        "190044.735000",
        "190045.750000",
        "190046.785000",
        "190047.776000",
        "190048.802000",
        "190049.758000",
        "190050.751000",
        "190051.743000",
        "190052.759000",
        "190053.757000",
        "190054.735000",
        "190055.709000",
        "190056.752000",
        "190057.725000",
        "190058.725000",
        "190059.734000",
        "190100.723000",
        "190101.746000",
        "190102.739000",
        "190103.738000",
        "190104.758000",
        "190105.734000",
        "190106.749000",
        "190107.757000",
        "190108.757000",
        "190109.779000",
        "190110.718000",
        "190111.746000",
        "190112.739000",
        "190113.753000",
        "190114.762000",
        "190115.725000",
        "190116.755000",
        "190117.746000",
        "190118.741000",
        "190119.762000",
        "190120.754000",
        "190121.760000",
        "190122.755000",
        "190123.745000",
        "190124.743000",
        "190125.755000",
        "190126.739000",
        "190127.728000",
        "190128.738000",
        "190129.749000",
        "190130.705000",
        "190131.770000",
        "190132.716000",
        "190133.748000",
        "190134.772000",
        "190135.734000",
        "190136.719000",
        "190137.758000",
        "190138.772000",
        "190139.737000",
        "190140.759000",
        "190141.766000",
        "190142.757000",
        "190143.821000",
        "190144.757000",
        "190145.729000",
        "190146.782000",
        "190147.752000",
        "190148.753000",
        "190149.733000",
        "190150.752000",
        "190151.730000",
        "190152.737000",
        "190153.718000",
        "190154.724000",
        "190155.788000",
        "190156.752000",
        "190157.760000",
        "190158.810000",
        "190159.737000",
        "190200.737000",
        "190201.745000",
        "190202.738000",
        "190203.735000",
        "190204.762000",
        "190205.729000",
        "190206.742000",
        "190207.730000",
        "190208.818000",
        "190209.769000",
        "190210.758000",
        "190211.748000",
        "190212.751000",
        "190213.771000",
        "190214.760000",
        "190215.748000",
        "190216.765000",
        "190217.764000",
        "190218.740000",
        "190219.745000",
        "190220.781000",
        "190221.723000",
        "190222.736000",
        "190223.756000",
        "190224.749000",
        "190225.742000",
        "190226.745000",
        "190227.765000",
        "190228.725000",
        "190229.727000",
        "190230.719000",
        "190231.747000",
        "190232.747000",
        "190233.720000",
        "190234.748000",
        "190235.756000",
        "190236.730000",
        "190237.761000",
        "190238.794000",
        "190239.771000",
        "190240.723000",
        "190241.740000",
        "190242.711000",
        "190243.797000",
        "190244.720000",
        "190245.824000",
        "190246.735000",
        "190247.761000",
        "190248.731000",
        "190249.762000",
        "190250.731000",
        "190251.732000",
        "190252.730000",
        "190253.756000",
        "190254.747000",
        "190255.768000",
        "190256.759000",
        "190257.834000",
        "190258.752000",
        "190259.818000",
        "190300.753000",
        "190301.727000",
        "190302.777000",
        "190303.752000",
        "190304.804000",
        "190305.753000",
        "190306.767000",
        "190307.757000",
        "190308.777000",
        "190309.740000",
        "190310.731000",
        "190311.771000",
        "190312.718000",
        "190313.724000",
        "190314.715000",
        "190315.759000",
        "190316.738000",
        "190317.708000",
        "190318.740000",
        "190319.731000",
        "190320.729000",
