{
  "AcquisitionMatrixPE": 96,
  "AcquisitionNumber": 1,
  "AcquisitionTime": "16:54:33.667500",
  "BandwidthPerPixelPhaseEncode": 18.939,
  "BaseResolution": 96,
  "BodyPartExamined": "BRAIN",
  "ConsistencyInfo": "N4_VE11C_LATEST_20160120",
  "ConversionSoftware": "dcm2niix",
  "ConversionSoftwareVersion": "v1.0.20170923 (OpenJPEG build) GCC6.3.0",
  "DerivedVendorReportedEchoSpacing": 0.000550011,
  "DeviceSerialNumber": "66112",
  "DwellTime": 2.2e-06,
  "EchoTime": 0.033,
  "EchoTrainLength": 96,
  "EffectiveEchoSpacing": 0.000550011,
  "FlipAngle": 59,
  "ImageType": [
    "ORIGINAL",
    "PRIMARY",
    "FMRI",
    "NONE",
    "ND",
    "NORM",
    "MOSAIC"
  ],
  "InstitutionAddress": "Maynard_3_Hanover_NH_US_03755",
  "InstitutionName": "Dartmouth_College_-_PBS",
  "MagneticFieldStrength": 3,
  "Manufacturer": "Siemens",
  "ManufacturersModelName": "Prisma",
  "Modality": "MR",
  "MultibandAccelerationFactor": 4,
  "PercentPhaseFOV": 100,
  "PhaseEncodingDirection": "j-",
  "PhaseEncodingSteps": 96,
  "PhaseResolution": 1,
  "ProcedureStepDescription": "Gobbini_Matteo_1038_hyperface",
  "ProtocolName": "func_run-07_task-visualmemory",
  "PulseSequenceDetails": "%SiemensSeq%_ep2d_bold",
  "ReceiveCoilActiveElements": "HEA;HEP",
  "ReceiveCoilName": "Head_32",
  "ReconMatrixPE": 96,
  "RepetitionTime": 1,
  "ScanOptions": "FS",
  "ScanningSequence": "EP",
  "SequenceName": "_epfid2d1_96",
  "SequenceVariant": "SK",
  "SeriesDescription": "func_run-07_task-visualmemory",
  "SliceTiming": [
    0.735,
    0,
    0.49,
    0.08,
    0.57,
    0.1625,
    0.6525,
    0.325,
    0.815,
    0.4075,
    0.8975,
    0.245,
    0.735,
    0,
    0.49,
    0.08,
    0.57,
    0.1625,
    0.6525,
    0.325,
    0.815,
    0.4075,
    0.8975,
    0.245,
    0.735,
    0,
    0.49,
    0.08,
    0.57,
    0.1625,
    0.6525,
    0.325,
    0.815,
    0.4075,
    0.8975,
    0.245,
    0.735,
    0,
    0.49,
    0.08,
    0.57,
    0.1625,
    0.6525,
    0.325,
    0.815,
    0.4075,
    0.8975,
    0.245
  ],
  "SoftwareVersions": "syngo_MR_E11",
  "StationName": "AWP66112",
  "TotalReadoutTime": 0.0522511,
  "dcmmeta_affine": [
    [
      -2.496321201324463,
      0.04531674459576607,
      0.12777525186538696,
      117.61424255371094
    ],
    [
      0.06510129570960999,
      2.467456102371216,
      0.39676445722579956,
      -111.07263946533203
    ],
    [
      0.11891989409923553,
      -0.39950796961784363,
      2.465005397796631,
      -46.509521484375
    ],
    [
      0.0,
      0.0,
      0.0,
      1.0
    ]
  ],
  "dcmmeta_reorient_transform": [
    [
      0.0,
      -1.0,
      0.0,
      95.0
    ],
    [
      1.0,
      0.0,
      0.0,
      0.0
    ],
    [
      0.0,
      0.0,
      1.0,
      0.0
    ],
    [
      0.0,
      0.0,
      0.0,
      1.0
    ]
  ],
  "dcmmeta_shape": [
    96,
    96,
    48,
    288
  ],
  "dcmmeta_slice_dim": 2,
  "dcmmeta_version": 0.6,
  "global": {
    "const": {
      "AccessionNumber": "A001173",
      "AcquisitionMatrix": [
        96,
        0,
        0,
        96
      ],
      "AngioFlag": "N",
      "BitsAllocated": 16,
      "BitsStored": 12,
      "BodyPartExamined": "BRAIN",
      "Columns": 672,
      "EchoNumbers": 1,
      "EchoTime": 33.0,
      "EchoTrainLength": 96,
      "FlipAngle": 59.0,
      "HighBit": 11,
      "ImageOrientationPatient": [
        0.99852850767904,
        -0.0260405195249,
        0.04756795870282,
        0.01812669767366,
        0.98698245361245,
        0.15980318861838
      ],
      "ImagePositionPatient": [
        -853.91107850762,
        -815.21388393532,
        -233.77000319073
      ],
      "ImageType": [
        "ORIGINAL",
        "PRIMARY",
        "FMRI",
        "NONE",
        "ND",
        "NORM",
        "MOSAIC"
      ],
      "ImagedNucleus": "1H",
      "ImagingFrequency": 123.252316,
      "InPlanePhaseEncodingDirection": "COL",
      "MRAcquisitionType": "2D",
      "MagneticFieldStrength": 3.0,
      "Manufacturer": "SIEMENS",
      "ManufacturerModelName": "Prisma",
      "Modality": "MR",
      "NumberOfAverages": 1.0,
      "NumberOfPhaseEncodingSteps": 96,
      "PercentPhaseFieldOfView": 100.0,
      "PercentSampling": 100.0,
      "PerformedProcedureStepStartTime": "161024.008000",
      "PhotometricInterpretation": "MONOCHROME2",
      "PixelBandwidth": 2365.0,
      "PixelRepresentation": 0,
      "PixelSpacing": [
        2.5,
        2.5
      ],
      "PositionReferenceIndicator": "",
      "ProtocolName": "func_run-07_task-visualmemory",
      "RepetitionTime": 1000.0,
      "Rows": 672,
      "SAR": 0.04146772301489,
      "SamplesPerPixel": 1,
      "ScanOptions": "FS",
      "ScanningSequence": "EP",
      "SequenceName": "*epfid2d1_96",
      "SequenceVariant": "SK",
      "SeriesDescription": "func_run-07_task-visualmemory",
      "SeriesNumber": 50,
      "SeriesTime": "165434.490000",
      "SliceLocation": -57.475082137786,
      "SliceThickness": 2.5,
      "SmallestImagePixelValue": 0,
      "SoftwareVersions": "syngo MR E11",
      "SpacingBetweenSlices": 2.4999999831241,
      "SpecificCharacterSet": "ISO_IR 100",
      "StudyID": "1",
      "StudyTime": "161023.913000",
      "TransmitCoilName": "Body",
      "VariableFlipAngleFlag": "N",
      "WindowCenterWidthExplanation": "Algo1",
      "dBdt": 0.0
    },
    "slices": {}
  },
  "time": {
    "samples": {
      "AcquisitionNumber": [
        1,
        2,
        3,
        4,
        5,
        6,
        7,
        8,
        9,
        10,
        11,
        12,
        13,
        14,
        15,
        16,
        17,
        18,
        19,
        20,
        21,
        22,
        23,
        24,
        25,
        26,
        27,
        28,
        29,
        30,
        31,
        32,
        33,
        34,
        35,
        36,
        37,
        38,
        39,
        40,
        41,
        42,
        43,
        44,
        45,
        46,
        47,
        48,
        49,
        50,
        51,
        52,
        53,
        54,
        55,
        56,
        57,
        58,
        59,
        60,
        61,
        62,
        63,
        64,
        65,
        66,
        67,
        68,
        69,
        70,
        71,
        72,
        73,
        74,
        75,
        76,
        77,
        78,
        79,
        80,
        81,
        82,
        83,
        84,
        85,
        86,
        87,
        88,
        89,
        90,
        91,
        92,
        93,
        94,
        95,
        96,
        97,
        98,
        99,
        100,
        101,
        102,
        103,
        104,
        105,
        106,
        107,
        108,
        109,
        110,
        111,
        112,
        113,
        114,
        115,
        116,
        117,
        118,
        119,
        120,
        121,
        122,
        123,
        124,
        125,
        126,
        127,
        128,
        129,
        130,
        131,
        132,
        133,
        134,
        135,
        136,
        137,
        138,
        139,
        140,
        141,
        142,
        143,
        144,
        145,
        146,
        147,
        148,
        149,
        150,
        151,
        152,
        153,
        154,
        155,
        156,
        157,
        158,
        159,
        160,
        161,
        162,
        163,
        164,
        165,
        166,
        167,
        168,
        169,
        170,
        171,
        172,
        173,
        174,
        175,
        176,
        177,
        178,
        179,
        180,
        181,
        182,
        183,
        184,
        185,
        186,
        187,
        188,
        189,
        190,
        191,
        192,
        193,
        194,
        195,
        196,
        197,
        198,
        199,
        200,
        201,
        202,
        203,
        204,
        205,
        206,
        207,
        208,
        209,
        210,
        211,
        212,
        213,
        214,
        215,
        216,
        217,
        218,
        219,
        220,
        221,
        222,
        223,
        224,
        225,
        226,
        227,
        228,
        229,
        230,
        231,
        232,
        233,
        234,
        235,
        236,
        237,
        238,
        239,
        240,
        241,
        242,
        243,
        244,
        245,
        246,
        247,
        248,
        249,
        250,
        251,
        252,
        253,
        254,
        255,
        256,
        257,
        258,
        259,
        260,
        261,
        262,
        263,
        264,
        265,
        266,
        267,
        268,
        269,
        270,
        271,
        272,
        273,
        274,
        275,
        276,
        277,
        278,
        279,
        280,
        281,
        282,
        283,
        284,
        285,
        286,
        287,
        288
      ],
      "AcquisitionTime": [
        "165433.667500",
        "165434.667500",
        "165435.667500",
        "165436.667500",
        "165437.667500",
        "165438.667500",
        "165439.667500",
        "165440.667500",
        "165441.667500",
        "165442.667500",
        "165443.667500",
        "165444.667500",
        "165445.667500",
        "165446.667500",
        "165447.667500",
        "165448.667500",
        "165449.667500",
        "165450.667500",
        "165451.667500",
        "165452.667500",
        "165453.667500",
        "165454.667500",
        "165455.667500",
        "165456.667500",
        "165457.667500",
        "165458.667500",
        "165459.667500",
        "165500.667500",
        "165501.667500",
        "165502.667500",
        "165503.667500",
        "165504.667500",
        "165505.667500",
        "165506.667500",
        "165507.667500",
        "165508.667500",
        "165509.667500",
        "165510.667500",
        "165511.667500",
        "165512.667500",
        "165513.667500",
        "165514.667500",
        "165515.667500",
        "165516.667500",
        "165517.667500",
        "165518.667500",
        "165519.667500",
        "165520.667500",
        "165521.667500",
        "165522.667500",
        "165523.667500",
        "165524.667500",
        "165525.667500",
        "165526.667500",
        "165527.667500",
        "165528.667500",
        "165529.667500",
        "165530.667500",
        "165531.667500",
        "165532.667500",
        "165533.667500",
        "165534.667500",
        "165535.667500",
        "165536.667500",
        "165537.667500",
        "165538.667500",
        "165539.667500",
        "165540.667500",
        "165541.667500",
        "165542.667500",
        "165543.667500",
        "165544.667500",
        "165545.667500",
        "165546.667500",
        "165547.667500",
        "165548.667500",
        "165549.667500",
        "165550.667500",
        "165551.667500",
        "165552.667500",
        "165553.667500",
        "165554.667500",
        "165555.667500",
        "165556.667500",
        "165557.667500",
        "165558.667500",
        "165559.667500",
        "165600.667500",
        "165601.667500",
        "165602.667500",
        "165603.667500",
        "165604.667500",
        "165605.667500",
        "165606.667500",
        "165607.667500",
        "165608.667500",
        "165609.667500",
        "165610.667500",
        "165611.667500",
        "165612.667500",
        "165613.667500",
        "165614.667500",
        "165615.667500",
        "165616.667500",
        "165617.667500",
        "165618.667500",
        "165619.667500",
        "165620.667500",
        "165621.667500",
        "165622.667500",
        "165623.667500",
        "165624.667500",
        "165625.667500",
        "165626.667500",
        "165627.667500",
        "165628.667500",
        "165629.667500",
        "165630.667500",
        "165631.667500",
        "165632.667500",
        "165633.667500",
        "165634.667500",
        "165635.667500",
        "165636.667500",
        "165637.667500",
        "165638.667500",
        "165639.667500",
        "165640.667500",
        "165641.667500",
        "165642.667500",
        "165643.667500",
        "165644.667500",
        "165645.667500",
        "165646.667500",
        "165647.667500",
        "165648.667500",
        "165649.667500",
        "165650.667500",
        "165651.667500",
        "165652.667500",
        "165653.667500",
        "165654.667500",
        "165655.667500",
        "165656.667500",
        "165657.667500",
        "165658.667500",
        "165659.667500",
        "165700.667500",
        "165701.667500",
        "165702.667500",
        "165703.667500",
        "165704.667500",
        "165705.667500",
        "165706.667500",
        "165707.667500",
        "165708.667500",
        "165709.667500",
        "165710.667500",
        "165711.667500",
        "165712.667500",
        "165713.667500",
        "165714.667500",
        "165715.667500",
        "165716.667500",
        "165717.667500",
        "165718.667500",
        "165719.667500",
        "165720.667500",
        "165721.667500",
        "165722.667500",
        "165723.667500",
        "165724.667500",
        "165725.667500",
        "165726.667500",
        "165727.667500",
        "165728.667500",
        "165729.667500",
        "165730.667500",
        "165731.667500",
        "165732.667500",
        "165733.667500",
        "165734.667500",
        "165735.667500",
        "165736.667500",
        "165737.667500",
        "165738.667500",
        "165739.667500",
        "165740.667500",
        "165741.667500",
        "165742.667500",
        "165743.667500",
        "165744.667500",
        "165745.667500",
        "165746.667500",
        "165747.667500",
        "165748.667500",
        "165749.667500",
        "165750.667500",
        "165751.667500",
        "165752.667500",
        "165753.667500",
        "165754.667500",
        "165755.667500",
        "165756.667500",
        "165757.667500",
        "165758.667500",
        "165759.667500",
        "165800.667500",
        "165801.667500",
        "165802.667500",
        "165803.667500",
        "165804.667500",
        "165805.667500",
        "165806.667500",
        "165807.667500",
        "165808.667500",
        "165809.667500",
        "165810.667500",
        "165811.667500",
        "165812.667500",
        "165813.667500",
        "165814.667500",
        "165815.667500",
        "165816.667500",
        "165817.667500",
        "165818.667500",
        "165819.667500",
        "165820.667500",
        "165821.667500",
        "165822.667500",
        "165823.667500",
        "165824.667500",
        "165825.667500",
        "165826.667500",
        "165827.667500",
        "165828.667500",
        "165829.667500",
        "165830.667500",
        "165831.667500",
        "165832.667500",
        "165833.667500",
        "165834.667500",
        "165835.667500",
        "165836.667500",
        "165837.667500",
        "165838.667500",
        "165839.667500",
        "165840.667500",
        "165841.667500",
        "165842.667500",
        "165843.667500",
        "165844.667500",
        "165845.667500",
        "165846.667500",
        "165847.667500",
        "165848.667500",
        "165849.667500",
        "165850.667500",
        "165851.667500",
        "165852.667500",
        "165853.667500",
        "165854.667500",
        "165855.667500",
        "165856.667500",
        "165857.667500",
        "165858.667500",
        "165859.667500",
        "165900.667500",
        "165901.667500",
        "165902.667500",
        "165903.667500",
        "165904.667500",
        "165905.667500",
        "165906.667500",
        "165907.667500",
        "165908.667500",
        "165909.667500",
        "165910.667500",
        "165911.667500",
        "165912.667500",
        "165913.667500",
        "165914.667500",
        "165915.667500",
        "165916.667500",
        "165917.667500",
        "165918.667500",
        "165919.667500",
        "165920.667500"
      ],
      "ContentTime": [
        "165434.494000",
        "165435.337000",
        "165436.334000",
        "165437.353000",
        "165438.350000",
        "165439.353000",
        "165440.360000",
        "165441.350000",
        "165442.364000",
        "165443.372000",
        "165444.353000",
        "165445.335000",
        "165446.354000",
        "165447.350000",
        "165448.357000",
        "165449.323000",
        "165450.347000",
        "165451.342000",
        "165452.340000",
        "165453.342000",
        "165454.329000",
        "165455.351000",
        "165456.350000",
        "165457.317000",
        "165458.357000",
        "165459.347000",
        "165500.342000",
        "165501.351000",
        "165502.366000",
        "165503.346000",
        "165504.392000",
        "165505.354000",
        "165506.343000",
        "165507.344000",
        "165508.339000",
        "165509.350000",
        "165510.360000",
        "165511.358000",
        "165512.345000",
        "165513.343000",
        "165514.319000",
        "165515.340000",
        "165516.353000",
        "165517.347000",
        "165518.353000",
        "165519.328000",
        "165520.330000",
        "165521.344000",
        "165522.389000",
        "165523.361000",
        "165524.314000",
        "165525.417000",
        "165526.352000",
        "165527.353000",
        "165528.321000",
        "165529.358000",
        "165530.367000",
        "165531.349000",
        "165532.362000",
        "165533.344000",
        "165534.365000",
        "165535.343000",
        "165536.346000",
        "165537.418000",
        "165538.342000",
        "165539.346000",
        "165540.418000",
        "165541.353000",
        "165542.374000",
        "165543.321000",
        "165544.361000",
        "165545.354000",
        "165546.402000",
        "165547.359000",
        "165548.370000",
        "165549.350000",
        "165550.387000",
        "165551.363000",
        "165552.358000",
        "165553.353000",
        "165554.345000",
        "165555.374000",
        "165556.337000",
        "165557.366000",
        "165558.346000",
        "165559.345000",
        "165600.342000",
        "165601.340000",
        "165602.323000",
        "165603.334000",
        "165604.414000",
        "165605.362000",
        "165606.347000",
        "165607.351000",
        "165608.350000",
        "165609.359000",
        "165610.368000",
        "165611.353000",
        "165612.348000",
        "165613.352000",
        "165614.358000",
        "165615.358000",
        "165616.338000",
        "165617.350000",
        "165618.341000",
        "165619.373000",
        "165620.350000",
        "165621.317000",
        "165622.359000",
        "165623.357000",
        "165624.376000",
        "165625.328000",
        "165626.390000",
        "165627.328000",
        "165628.367000",
        "165629.374000",
        "165630.339000",
        "165631.343000",
        "165632.373000",
        "165633.328000",
        "165634.353000",
        "165635.348000",
        "165636.355000",
        "165637.357000",
        "165638.318000",
        "165639.351000",
        "165640.365000",
        "165641.338000",
        "165642.358000",
        "165643.378000",
        "165644.405000",
        "165645.346000",
        "165646.342000",
        "165647.366000",
        "165648.354000",
        "165649.338000",
        "165650.333000",
        "165651.335000",
        "165652.381000",
        "165653.347000",
        "165654.358000",
        "165655.332000",
        "165656.335000",
        "165657.360000",
        "165658.387000",
        "165659.352000",
        "165700.366000",
        "165701.346000",
        "165702.361000",
        "165703.364000",
        "165704.363000",
        "165705.355000",
        "165706.334000",
        "165707.365000",
        "165708.337000",
        "165709.325000",
        "165710.353000",
        "165711.361000",
        "165712.353000",
        "165713.345000",
        "165714.337000",
        "165715.349000",
        "165716.340000",
        "165717.350000",
        "165718.330000",
        "165719.364000",
        "165720.353000",
        "165721.351000",
        "165722.341000",
        "165723.339000",
        "165724.343000",
        "165725.354000",
        "165726.352000",
        "165727.347000",
        "165728.343000",
        "165729.323000",
        "165730.367000",
        "165731.347000",
        "165732.353000",
        "165733.336000",
        "165734.356000",
        "165735.324000",
        "165736.338000",
        "165737.350000",
        "165738.357000",
        "165739.346000",
        "165740.345000",
        "165741.351000",
        "165742.339000",
        "165743.345000",
        "165744.345000",
        "165745.365000",
        "165746.374000",
        "165747.342000",
        "165748.342000",
        "165749.330000",
        "165750.365000",
        "165751.350000",
        "165752.370000",
        "165753.341000",
        "165754.335000",
        "165755.348000",
        "165756.336000",
        "165757.339000",
        "165758.338000",
        "165759.350000",
        "165800.348000",
        "165801.350000",
        "165802.332000",
        "165803.382000",
        "165804.349000",
        "165805.372000",
        "165806.336000",
        "165807.342000",
        "165808.371000",
        "165809.359000",
        "165810.370000",
        "165811.346000",
        "165812.372000",
        "165813.358000",
        "165814.404000",
        "165815.337000",
        "165816.332000",
        "165817.352000",
        "165818.336000",
        "165819.348000",
        "165820.339000",
        "165821.328000",
        "165822.350000",
        "165823.392000",
        "165824.343000",
        "165825.353000",
        "165826.361000",
        "165827.345000",
        "165828.342000",
        "165829.340000",
        "165830.315000",
        "165831.334000",
        "165832.343000",
        "165833.337000",
        "165834.351000",
        "165835.341000",
        "165836.352000",
        "165837.368000",
        "165838.371000",
        "165839.332000",
        "165840.351000",
        "165841.328000",
        "165842.358000",
        "165843.361000",
        "165844.333000",
        "165845.357000",
        "165846.332000",
        "165847.354000",
        "165848.342000",
        "165849.338000",
        "165850.331000",
        "165851.346000",
        "165852.358000",
        "165853.351000",
        "165854.416000",
        "165855.374000",
        "165856.349000",
        "165857.342000",
        "165858.363000",
        "165859.332000",
        "165900.354000",
        "165901.363000",
        "165902.329000",
        "165903.347000",
        "165904.332000",
        "165905.353000",
        "165906.331000",
        "165907.375000",
        "165908.415000",
        "165909.340000",
        "165910.370000",
        "165911.328000",
        "165912.372000",
        "165913.353000",
        "165914.342000",
        "165915.340000",
        "165916.366000",
        "165917.345000",
        "165918.323000",
        "165919.370000",
        "165920.340000",
        "165921.389000"
      ],
      "InstanceCreationTime": [
        "165434.494000",
        "165435.337000",
        "165436.334000",
        "165437.353000",
        "165438.350000",
        "165439.353000",
        "165440.360000",
        "165441.350000",
        "165442.364000",
        "165443.372000",
        "165444.353000",
        "165445.335000",
        "165446.354000",
        "165447.350000",
        "165448.357000",
        "165449.323000",
        "165450.347000",
        "165451.342000",
        "165452.340000",
        "165453.342000",
        "165454.329000",
        "165455.351000",
        "165456.350000",
        "165457.317000",
        "165458.357000",
        "165459.347000",
        "165500.342000",
        "165501.351000",
        "165502.366000",
        "165503.346000",
        "165504.392000",
        "165505.354000",
        "165506.343000",
        "165507.344000",
        "165508.339000",
        "165509.350000",
        "165510.360000",
        "165511.358000",
        "165512.345000",
        "165513.343000",
        "165514.319000",
        "165515.340000",
        "165516.353000",
        "165517.347000",
        "165518.353000",
        "165519.328000",
        "165520.330000",
        "165521.344000",
        "165522.389000",
        "165523.361000",
        "165524.314000",
        "165525.417000",
        "165526.352000",
        "165527.353000",
        "165528.321000",
        "165529.358000",
        "165530.367000",
        "165531.349000",
        "165532.362000",
        "165533.344000",
        "165534.365000",
        "165535.343000",
        "165536.346000",
        "165537.418000",
        "165538.342000",
        "165539.346000",
        "165540.418000",
        "165541.353000",
        "165542.374000",
        "165543.321000",
        "165544.361000",
        "165545.354000",
        "165546.402000",
        "165547.359000",
        "165548.370000",
        "165549.350000",
        "165550.387000",
        "165551.363000",
        "165552.358000",
        "165553.353000",
        "165554.345000",
        "165555.374000",
        "165556.337000",
        "165557.366000",
        "165558.346000",
        "165559.345000",
        "165600.342000",
        "165601.340000",
        "165602.323000",
        "165603.334000",
        "165604.414000",
        "165605.362000",
        "165606.347000",
        "165607.351000",
        "165608.350000",
        "165609.359000",
        "165610.368000",
        "165611.353000",
        "165612.348000",
        "165613.352000",
        "165614.358000",
        "165615.358000",
        "165616.338000",
        "165617.350000",
        "165618.341000",
        "165619.373000",
        "165620.350000",
        "165621.317000",
        "165622.359000",
        "165623.357000",
        "165624.376000",
        "165625.328000",
        "165626.390000",
        "165627.328000",
        "165628.367000",
        "165629.374000",
        "165630.339000",
        "165631.343000",
        "165632.373000",
        "165633.328000",
        "165634.353000",
        "165635.348000",
        "165636.355000",
        "165637.357000",
        "165638.318000",
        "165639.351000",
        "165640.365000",
        "165641.338000",
        "165642.358000",
        "165643.378000",
        "165644.405000",
        "165645.346000",
        "165646.342000",
        "165647.366000",
        "165648.354000",
        "165649.338000",
        "165650.333000",
        "165651.335000",
        "165652.381000",
        "165653.347000",
        "165654.358000",
        "165655.332000",
        "165656.335000",
        "165657.360000",
        "165658.387000",
        "165659.352000",
        "165700.366000",
        "165701.346000",
        "165702.361000",
        "165703.364000",
        "165704.363000",
        "165705.355000",
        "165706.334000",
        "165707.365000",
        "165708.337000",
        "165709.325000",
        "165710.353000",
        "165711.361000",
        "165712.353000",
        "165713.345000",
        "165714.337000",
        "165715.349000",
        "165716.340000",
        "165717.350000",
        "165718.330000",
        "165719.364000",
        "165720.353000",
        "165721.351000",
        "165722.341000",
        "165723.339000",
        "165724.343000",
        "165725.354000",
        "165726.352000",
        "165727.347000",
        "165728.343000",
        "165729.323000",
        "165730.367000",
        "165731.347000",
        "165732.353000",
        "165733.336000",
        "165734.356000",
        "165735.324000",
        "165736.338000",
        "165737.350000",
        "165738.357000",
        "165739.346000",
        "165740.345000",
        "165741.351000",
        "165742.339000",
        "165743.345000",
        "165744.345000",
        "165745.365000",
        "165746.374000",
        "165747.342000",
        "165748.342000",
        "165749.330000",
        "165750.365000",
        "165751.350000",
        "165752.370000",
        "165753.341000",
        "165754.335000",
        "165755.348000",
        "165756.336000",
        "165757.339000",
        "165758.338000",
        "165759.350000",
        "165800.348000",
        "165801.350000",
        "165802.332000",
        "165803.382000",
        "165804.349000",
        "165805.372000",
        "165806.336000",
        "165807.342000",
        "165808.371000",
        "165809.359000",
        "165810.370000",
        "165811.346000",
        "165812.372000",
        "165813.358000",
        "165814.404000",
        "165815.337000",
        "165816.332000",
        "165817.352000",
        "165818.336000",
        "165819.348000",
        "165820.339000",
        "165821.328000",
        "165822.350000",
        "165823.392000",
        "165824.343000",
        "165825.353000",
        "165826.361000",
        "165827.345000",
        "165828.342000",
        "165829.340000",
        "165830.315000",
        "165831.334000",
        "165832.343000",
        "165833.337000",
        "165834.351000",
        "165835.341000",
        "165836.352000",
        "165837.368000",
        "165838.371000",
        "165839.332000",
        "165840.351000",
        "165841.328000",
        "165842.358000",
        "165843.361000",
        "165844.333000",
        "165845.357000",
        "165846.332000",
        "165847.354000",
        "165848.342000",
        "165849.338000",
