{
  "AcquisitionMatrixPE": 96,
  "AcquisitionNumber": 1,
  "AcquisitionTime": "16:49:9.542500",
  "BandwidthPerPixelPhaseEncode": 18.939,
  "BaseResolution": 96,
  "BodyPartExamined": "BRAIN",
  "ConsistencyInfo": "N4_VE11C_LATEST_20160120",
  "ConversionSoftware": "dcm2niix",
  "ConversionSoftwareVersion": "v1.0.20170923 (OpenJPEG build) GCC6.3.0",
  "DerivedVendorReportedEchoSpacing": 0.000550011,
  "DeviceSerialNumber": "66112",
  "DwellTime": 2.2e-06,
  "EchoTime": 0.033,
  "EchoTrainLength": 96,
  "EffectiveEchoSpacing": 0.000550011,
  "FlipAngle": 59,
  "ImageType": [
    "ORIGINAL",
    "PRIMARY",
    "FMRI",
    "NONE",
    "ND",
    "NORM",
    "MOSAIC"
  ],
  "InstitutionAddress": "Maynard_3_Hanover_NH_US_03755",
  "InstitutionName": "Dartmouth_College_-_PBS",
  "MagneticFieldStrength": 3,
  "Manufacturer": "Siemens",
  "ManufacturersModelName": "Prisma",
  "Modality": "MR",
  "MultibandAccelerationFactor": 4,
  "PercentPhaseFOV": 100,
  "PhaseEncodingDirection": "j-",
  "PhaseEncodingSteps": 96,
  "PhaseResolution": 1,
  "ProcedureStepDescription": "Gobbini_Matteo_1038_hyperface",
  "ProtocolName": "func_run-06_task-visualmemory",
  "PulseSequenceDetails": "%SiemensSeq%_ep2d_bold",
  "ReceiveCoilActiveElements": "HEA;HEP",
  "ReceiveCoilName": "Head_32",
  "ReconMatrixPE": 96,
  "RepetitionTime": 1,
  "ScanOptions": "FS",
  "ScanningSequence": "EP",
  "SequenceName": "_epfid2d1_96",
  "SequenceVariant": "SK",
  "SeriesDescription": "func_run-06_task-visualmemory",
  "SliceTiming": [
    0.735,
    0,
    0.49,
    0.08,
    0.57,
    0.1625,
    0.6525,
    0.325,
    0.815,
    0.4075,
    0.8975,
    0.245,
    0.735,
    0,
    0.49,
    0.08,
    0.57,
    0.1625,
    0.6525,
    0.325,
    0.815,
    0.4075,
    0.8975,
    0.245,
    0.735,
    0,
    0.49,
    0.08,
    0.57,
    0.1625,
    0.6525,
    0.325,
    0.815,
    0.4075,
    0.8975,
    0.245,
    0.735,
    0,
    0.49,
    0.08,
    0.57,
    0.1625,
    0.6525,
    0.325,
    0.815,
    0.4075,
    0.8975,
    0.245
  ],
  "SoftwareVersions": "syngo_MR_E11",
  "StationName": "AWP66112",
  "TotalReadoutTime": 0.0522511,
  "dcmmeta_affine": [
    [
      -2.496321201324463,
      0.04531674459576607,
      0.12777525186538696,
      117.61424255371094
    ],
    [
      0.06510129570960999,
      2.467456102371216,
      0.39676445722579956,
      -111.07263946533203
    ],
    [
      0.11891989409923553,
      -0.39950796961784363,
      2.465005397796631,
      -46.509521484375
    ],
    [
      0.0,
      0.0,
      0.0,
      1.0
    ]
  ],
  "dcmmeta_reorient_transform": [
    [
      0.0,
      -1.0,
      0.0,
      95.0
    ],
    [
      1.0,
      0.0,
      0.0,
      0.0
    ],
    [
      0.0,
      0.0,
      1.0,
      0.0
    ],
    [
      0.0,
      0.0,
      0.0,
      1.0
    ]
  ],
  "dcmmeta_shape": [
    96,
    96,
    48,
    288
  ],
  "dcmmeta_slice_dim": 2,
  "dcmmeta_version": 0.6,
  "global": {
    "const": {
      "AccessionNumber": "A001173",
      "AcquisitionMatrix": [
        96,
        0,
        0,
        96
      ],
      "AngioFlag": "N",
      "BitsAllocated": 16,
      "BitsStored": 12,
      "BodyPartExamined": "BRAIN",
      "Columns": 672,
      "EchoNumbers": 1,
      "EchoTime": 33.0,
      "EchoTrainLength": 96,
      "FlipAngle": 59.0,
      "HighBit": 11,
      "ImageOrientationPatient": [
        0.99852850767904,
        -0.0260405195249,
        0.04756795870282,
        0.01812669767366,
        0.98698245361245,
        0.15980318861838
      ],
      "ImagePositionPatient": [
        -853.91107850762,
        -815.21388393532,
        -233.77000319073
      ],
      "ImageType": [
        "ORIGINAL",
        "PRIMARY",
        "FMRI",
        "NONE",
        "ND",
        "NORM",
        "MOSAIC"
      ],
      "ImagedNucleus": "1H",
      "ImagingFrequency": 123.252318,
      "InPlanePhaseEncodingDirection": "COL",
      "MRAcquisitionType": "2D",
      "MagneticFieldStrength": 3.0,
      "Manufacturer": "SIEMENS",
      "ManufacturerModelName": "Prisma",
      "Modality": "MR",
      "NumberOfAverages": 1.0,
      "NumberOfPhaseEncodingSteps": 96,
      "PercentPhaseFieldOfView": 100.0,
      "PercentSampling": 100.0,
      "PerformedProcedureStepStartTime": "161024.008000",
      "PhotometricInterpretation": "MONOCHROME2",
      "PixelBandwidth": 2365.0,
      "PixelRepresentation": 0,
      "PixelSpacing": [
        2.5,
        2.5
      ],
      "PositionReferenceIndicator": "",
      "ProtocolName": "func_run-06_task-visualmemory",
      "RepetitionTime": 1000.0,
      "Rows": 672,
      "SAR": 0.04146772301489,
      "SamplesPerPixel": 1,
      "ScanOptions": "FS",
      "ScanningSequence": "EP",
      "SequenceName": "*epfid2d1_96",
      "SequenceVariant": "SK",
      "SeriesDescription": "func_run-06_task-visualmemory",
      "SeriesNumber": 43,
      "SeriesTime": "164910.435000",
      "SliceLocation": -57.475082137786,
      "SliceThickness": 2.5,
      "SmallestImagePixelValue": 0,
      "SoftwareVersions": "syngo MR E11",
      "SpacingBetweenSlices": 2.4999999831241,
      "SpecificCharacterSet": "ISO_IR 100",
      "StudyID": "1",
      "StudyTime": "161023.913000",
      "TransmitCoilName": "Body",
      "VariableFlipAngleFlag": "N",
      "WindowCenterWidthExplanation": "Algo1",
      "dBdt": 0.0
    },
    "slices": {}
  },
  "time": {
    "samples": {
      "AcquisitionNumber": [
        1,
        2,
        3,
        4,
        5,
        6,
        7,
        8,
        9,
        10,
        11,
        12,
        13,
        14,
        15,
        16,
        17,
        18,
        19,
        20,
        21,
        22,
        23,
        24,
        25,
        26,
        27,
        28,
        29,
        30,
        31,
        32,
        33,
        34,
        35,
        36,
        37,
        38,
        39,
        40,
        41,
        42,
        43,
        44,
        45,
        46,
        47,
        48,
        49,
        50,
        51,
        52,
        53,
        54,
        55,
        56,
        57,
        58,
        59,
        60,
        61,
        62,
        63,
        64,
        65,
        66,
        67,
        68,
        69,
        70,
        71,
        72,
        73,
        74,
        75,
        76,
        77,
        78,
        79,
        80,
        81,
        82,
        83,
        84,
        85,
        86,
        87,
        88,
        89,
        90,
        91,
        92,
        93,
        94,
        95,
        96,
        97,
        98,
        99,
        100,
        101,
        102,
        103,
        104,
        105,
        106,
        107,
        108,
        109,
        110,
        111,
        112,
        113,
        114,
        115,
        116,
        117,
        118,
        119,
        120,
        121,
        122,
        123,
        124,
        125,
        126,
        127,
        128,
        129,
        130,
        131,
        132,
        133,
        134,
        135,
        136,
        137,
        138,
        139,
        140,
        141,
        142,
        143,
        144,
        145,
        146,
        147,
        148,
        149,
        150,
        151,
        152,
        153,
        154,
        155,
        156,
        157,
        158,
        159,
        160,
        161,
        162,
        163,
        164,
        165,
        166,
        167,
        168,
        169,
        170,
        171,
        172,
        173,
        174,
        175,
        176,
        177,
        178,
        179,
        180,
        181,
        182,
        183,
        184,
        185,
        186,
        187,
        188,
        189,
        190,
        191,
        192,
        193,
        194,
        195,
        196,
        197,
        198,
        199,
        200,
        201,
        202,
        203,
        204,
        205,
        206,
        207,
        208,
        209,
        210,
        211,
        212,
        213,
        214,
        215,
        216,
        217,
        218,
        219,
        220,
        221,
        222,
        223,
        224,
        225,
        226,
        227,
        228,
        229,
        230,
        231,
        232,
        233,
        234,
        235,
        236,
        237,
        238,
        239,
        240,
        241,
        242,
        243,
        244,
        245,
        246,
        247,
        248,
        249,
        250,
        251,
        252,
        253,
        254,
        255,
        256,
        257,
        258,
        259,
        260,
        261,
        262,
        263,
        264,
        265,
        266,
        267,
        268,
        269,
        270,
        271,
        272,
        273,
        274,
        275,
        276,
        277,
        278,
        279,
        280,
        281,
        282,
        283,
        284,
        285,
        286,
        287,
        288
      ],
      "AcquisitionTime": [
        "164909.542500",
        "164910.542500",
        "164911.542500",
        "164912.542500",
        "164913.542500",
        "164914.542500",
        "164915.542500",
        "164916.542500",
        "164917.542500",
        "164918.542500",
        "164919.542500",
        "164920.542500",
        "164921.542500",
        "164922.542500",
        "164923.542500",
        "164924.542500",
        "164925.542500",
        "164926.542500",
        "164927.542500",
        "164928.542500",
        "164929.542500",
        "164930.542500",
        "164931.542500",
        "164932.542500",
        "164933.542500",
        "164934.542500",
        "164935.542500",
        "164936.542500",
        "164937.542500",
        "164938.542500",
        "164939.542500",
        "164940.542500",
        "164941.542500",
        "164942.542500",
        "164943.542500",
        "164944.542500",
        "164945.542500",
        "164946.542500",
        "164947.542500",
        "164948.542500",
        "164949.542500",
        "164950.542500",
        "164951.542500",
        "164952.542500",
        "164953.542500",
        "164954.542500",
        "164955.542500",
        "164956.542500",
        "164957.542500",
        "164958.542500",
        "164959.542500",
        "165000.542500",
        "165001.542500",
        "165002.542500",
        "165003.542500",
        "165004.542500",
        "165005.542500",
        "165006.542500",
        "165007.542500",
        "165008.542500",
        "165009.542500",
        "165010.542500",
        "165011.542500",
        "165012.542500",
        "165013.542500",
        "165014.542500",
        "165015.542500",
        "165016.542500",
        "165017.542500",
        "165018.542500",
        "165019.542500",
        "165020.542500",
        "165021.542500",
        "165022.542500",
        "165023.542500",
        "165024.542500",
        "165025.542500",
        "165026.542500",
        "165027.542500",
        "165028.542500",
        "165029.542500",
        "165030.542500",
        "165031.542500",
        "165032.542500",
        "165033.542500",
        "165034.542500",
        "165035.542500",
        "165036.542500",
        "165037.542500",
        "165038.542500",
        "165039.542500",
        "165040.542500",
        "165041.542500",
        "165042.542500",
        "165043.542500",
        "165044.542500",
        "165045.542500",
        "165046.542500",
        "165047.542500",
        "165048.542500",
        "165049.542500",
        "165050.542500",
        "165051.542500",
        "165052.542500",
        "165053.542500",
        "165054.542500",
        "165055.542500",
        "165056.542500",
        "165057.542500",
        "165058.542500",
        "165059.542500",
        "165100.542500",
        "165101.542500",
        "165102.542500",
        "165103.542500",
        "165104.542500",
        "165105.542500",
        "165106.542500",
        "165107.542500",
        "165108.542500",
        "165109.542500",
        "165110.542500",
        "165111.542500",
        "165112.542500",
        "165113.542500",
        "165114.542500",
        "165115.542500",
        "165116.542500",
        "165117.542500",
        "165118.542500",
        "165119.542500",
        "165120.542500",
        "165121.542500",
        "165122.542500",
        "165123.542500",
        "165124.542500",
        "165125.542500",
        "165126.542500",
        "165127.542500",
        "165128.542500",
        "165129.542500",
        "165130.542500",
        "165131.542500",
        "165132.542500",
        "165133.542500",
        "165134.542500",
        "165135.542500",
        "165136.542500",
        "165137.542500",
        "165138.542500",
        "165139.542500",
        "165140.542500",
        "165141.542500",
        "165142.542500",
        "165143.542500",
        "165144.542500",
        "165145.542500",
        "165146.542500",
        "165147.542500",
        "165148.542500",
        "165149.542500",
        "165150.542500",
        "165151.542500",
        "165152.542500",
        "165153.542500",
        "165154.542500",
        "165155.542500",
        "165156.542500",
        "165157.542500",
        "165158.542500",
        "165159.542500",
        "165200.542500",
        "165201.542500",
        "165202.542500",
        "165203.542500",
        "165204.542500",
        "165205.542500",
        "165206.542500",
        "165207.542500",
        "165208.542500",
        "165209.542500",
        "165210.542500",
        "165211.542500",
        "165212.542500",
        "165213.542500",
        "165214.542500",
        "165215.542500",
        "165216.542500",
        "165217.542500",
        "165218.542500",
        "165219.542500",
        "165220.542500",
        "165221.542500",
        "165222.542500",
        "165223.542500",
        "165224.542500",
        "165225.542500",
        "165226.542500",
        "165227.542500",
        "165228.542500",
        "165229.542500",
        "165230.542500",
        "165231.542500",
        "165232.542500",
        "165233.542500",
        "165234.542500",
        "165235.542500",
        "165236.542500",
        "165237.542500",
        "165238.542500",
        "165239.542500",
        "165240.542500",
        "165241.542500",
        "165242.542500",
        "165243.542500",
        "165244.542500",
        "165245.542500",
        "165246.542500",
        "165247.542500",
        "165248.542500",
        "165249.542500",
        "165250.542500",
        "165251.542500",
        "165252.542500",
        "165253.542500",
        "165254.542500",
        "165255.542500",
        "165256.542500",
        "165257.542500",
        "165258.542500",
        "165259.542500",
        "165300.542500",
        "165301.542500",
        "165302.542500",
        "165303.542500",
        "165304.542500",
        "165305.542500",
        "165306.542500",
        "165307.542500",
        "165308.542500",
        "165309.542500",
        "165310.542500",
        "165311.542500",
        "165312.542500",
        "165313.542500",
        "165314.542500",
        "165315.542500",
        "165316.542500",
        "165317.542500",
        "165318.542500",
        "165319.542500",
        "165320.542500",
        "165321.542500",
        "165322.542500",
        "165323.542500",
        "165324.542500",
        "165325.542500",
        "165326.542500",
        "165327.542500",
        "165328.542500",
        "165329.542500",
        "165330.542500",
        "165331.542500",
        "165332.542500",
        "165333.542500",
        "165334.542500",
        "165335.542500",
        "165336.542500",
        "165337.542500",
        "165338.542500",
        "165339.542500",
        "165340.542500",
        "165341.542500",
        "165342.542500",
        "165343.542500",
        "165344.542500",
        "165345.542500",
        "165346.542500",
        "165347.542500",
        "165348.542500",
        "165349.542500",
        "165350.542500",
        "165351.542500",
        "165352.542500",
        "165353.542500",
        "165354.542500",
        "165355.542500",
        "165356.542500"
      ],
      "ContentTime": [
        "164910.439000",
        "164911.267000",
        "164912.204000",
        "164913.227000",
        "164914.221000",
        "164915.256000",
        "164916.238000",
        "164917.218000",
        "164918.244000",
        "164919.239000",
        "164920.253000",
        "164921.221000",
        "164922.224000",
        "164923.250000",
        "164924.255000",
        "164925.230000",
        "164926.209000",
        "164927.226000",
        "164928.231000",
        "164929.219000",
        "164930.232000",
        "164931.228000",
        "164932.236000",
        "164933.226000",
        "164934.253000",
        "164935.228000",
        "164936.206000",
        "164937.216000",
        "164938.230000",
        "164939.246000",
        "164940.218000",
        "164941.226000",
        "164942.223000",
        "164943.227000",
        "164944.230000",
        "164945.232000",
        "164946.230000",
        "164947.244000",
        "164948.234000",
        "164949.228000",
        "164950.210000",
        "164951.220000",
        "164952.214000",
        "164953.264000",
        "164954.234000",
        "164955.239000",
        "164956.230000",
        "164957.237000",
        "164958.274000",
        "164959.220000",
        "165000.223000",
        "165001.234000",
        "165002.217000",
        "165003.217000",
        "165004.215000",
        "165005.223000",
        "165006.250000",
        "165007.204000",
        "165008.239000",
        "165009.220000",
        "165010.241000",
        "165011.229000",
        "165012.238000",
        "165013.234000",
        "165014.223000",
        "165015.230000",
        "165016.239000",
        "165017.226000",
        "165018.246000",
        "165019.229000",
        "165020.235000",
        "165021.220000",
        "165022.207000",
        "165023.228000",
        "165024.215000",
        "165025.253000",
        "165026.242000",
        "165027.236000",
        "165028.218000",
        "165029.213000",
        "165030.252000",
        "165031.221000",
        "165032.208000",
        "165033.235000",
        "165034.245000",
        "165035.227000",
        "165036.262000",
        "165037.222000",
        "165038.230000",
        "165039.222000",
        "165040.238000",
        "165041.235000",
        "165042.221000",
        "165043.253000",
        "165044.261000",
        "165045.233000",
        "165046.231000",
        "165047.232000",
        "165048.255000",
        "165049.230000",
        "165050.231000",
        "165051.244000",
        "165052.277000",
        "165053.232000",
        "165054.224000",
        "165055.243000",
        "165056.231000",
        "165057.233000",
        "165058.249000",
        "165059.259000",
        "165100.239000",
        "165101.238000",
        "165102.242000",
        "165103.227000",
        "165104.254000",
        "165105.256000",
        "165106.205000",
        "165107.228000",
        "165108.238000",
        "165109.246000",
        "165110.228000",
        "165111.195000",
        "165112.225000",
        "165113.249000",
        "165114.239000",
        "165115.228000",
        "165116.241000",
        "165117.233000",
        "165118.211000",
        "165119.281000",
        "165120.234000",
        "165121.242000",
        "165122.218000",
        "165123.236000",
        "165124.242000",
        "165125.241000",
        "165126.233000",
        "165127.231000",
        "165128.234000",
        "165129.237000",
        "165130.265000",
        "165131.227000",
        "165132.255000",
        "165133.240000",
        "165134.238000",
        "165135.228000",
        "165136.251000",
        "165137.251000",
        "165138.233000",
        "165139.250000",
        "165140.237000",
        "165141.262000",
        "165142.265000",
        "165143.242000",
        "165144.245000",
        "165145.224000",
        "165146.208000",
        "165147.250000",
        "165148.243000",
        "165149.220000",
        "165150.240000",
        "165151.246000",
        "165152.222000",
        "165153.254000",
        "165154.256000",
        "165155.228000",
        "165156.224000",
        "165157.265000",
        "165158.251000",
        "165159.240000",
        "165200.245000",
        "165201.243000",
        "165202.217000",
        "165203.242000",
        "165204.220000",
        "165205.239000",
        "165206.234000",
        "165207.244000",
        "165208.259000",
        "165209.230000",
        "165210.253000",
        "165211.239000",
        "165212.257000",
        "165213.240000",
        "165214.229000",
        "165215.276000",
        "165216.224000",
        "165217.301000",
        "165218.243000",
        "165219.251000",
        "165220.235000",
        "165221.254000",
        "165222.227000",
        "165223.212000",
        "165224.228000",
        "165225.240000",
        "165226.251000",
        "165227.239000",
        "165228.249000",
        "165229.269000",
        "165230.234000",
        "165231.271000",
        "165232.304000",
        "165233.227000",
        "165234.236000",
        "165235.287000",
        "165236.231000",
        "165237.238000",
        "165238.234000",
        "165239.251000",
        "165240.239000",
        "165241.229000",
        "165242.241000",
        "165243.240000",
        "165244.221000",
        "165245.239000",
        "165246.261000",
        "165247.240000",
        "165248.242000",
        "165249.279000",
        "165250.224000",
        "165251.251000",
        "165252.229000",
        "165253.233000",
        "165254.237000",
        "165255.253000",
        "165256.253000",
        "165257.213000",
        "165258.243000",
        "165259.258000",
        "165300.244000",
        "165301.206000",
        "165302.233000",
        "165303.236000",
        "165304.223000",
        "165305.240000",
        "165306.244000",
        "165307.260000",
        "165308.266000",
        "165309.224000",
        "165310.229000",
        "165311.226000",
        "165312.211000",
        "165313.240000",
        "165314.234000",
        "165315.240000",
        "165316.236000",
        "165317.214000",
        "165318.229000",
        "165319.258000",
        "165320.223000",
        "165321.246000",
        "165322.238000",
        "165323.237000",
        "165324.235000",
        "165325.237000",
        "165326.222000",
        "165327.277000",
        "165328.243000",
        "165329.259000",
        "165330.240000",
        "165331.232000",
        "165332.251000",
        "165333.255000",
        "165334.235000",
        "165335.238000",
        "165336.236000",
        "165337.278000",
        "165338.219000",
        "165339.232000",
        "165340.220000",
        "165341.243000",
        "165342.241000",
        "165343.234000",
        "165344.242000",
        "165345.215000",
        "165346.242000",
        "165347.228000",
        "165348.223000",
        "165349.268000",
        "165350.223000",
        "165351.238000",
        "165352.225000",
        "165353.221000",
        "165354.256000",
        "165355.237000",
        "165356.239000",
        "165357.273000"
      ],
      "InstanceCreationTime": [
        "164910.439000",
        "164911.267000",
        "164912.204000",
        "164913.227000",
        "164914.221000",
        "164915.256000",
        "164916.238000",
        "164917.218000",
        "164918.244000",
        "164919.239000",
        "164920.253000",
        "164921.221000",
        "164922.224000",
        "164923.250000",
        "164924.255000",
        "164925.230000",
        "164926.209000",
        "164927.226000",
        "164928.231000",
        "164929.219000",
        "164930.232000",
        "164931.228000",
        "164932.236000",
        "164933.226000",
        "164934.253000",
        "164935.228000",
        "164936.206000",
        "164937.216000",
        "164938.230000",
        "164939.246000",
        "164940.218000",
        "164941.226000",
        "164942.223000",
        "164943.227000",
        "164944.230000",
        "164945.232000",
        "164946.230000",
        "164947.244000",
        "164948.234000",
        "164949.228000",
        "164950.210000",
        "164951.220000",
        "164952.214000",
        "164953.264000",
        "164954.234000",
        "164955.239000",
        "164956.230000",
        "164957.237000",
        "164958.274000",
        "164959.220000",
        "165000.223000",
        "165001.234000",
        "165002.217000",
        "165003.217000",
        "165004.215000",
        "165005.223000",
        "165006.250000",
        "165007.204000",
        "165008.239000",
        "165009.220000",
        "165010.241000",
        "165011.229000",
        "165012.238000",
        "165013.234000",
        "165014.223000",
        "165015.230000",
        "165016.239000",
        "165017.226000",
        "165018.246000",
        "165019.229000",
        "165020.235000",
        "165021.220000",
        "165022.207000",
        "165023.228000",
        "165024.215000",
        "165025.253000",
        "165026.242000",
        "165027.236000",
        "165028.218000",
        "165029.213000",
        "165030.252000",
        "165031.221000",
        "165032.208000",
        "165033.235000",
        "165034.245000",
        "165035.227000",
        "165036.262000",
        "165037.222000",
        "165038.230000",
        "165039.222000",
        "165040.238000",
        "165041.235000",
        "165042.221000",
        "165043.253000",
        "165044.261000",
        "165045.233000",
        "165046.231000",
        "165047.232000",
        "165048.255000",
        "165049.230000",
        "165050.231000",
        "165051.244000",
        "165052.277000",
        "165053.232000",
        "165054.224000",
        "165055.243000",
        "165056.231000",
        "165057.233000",
        "165058.249000",
        "165059.259000",
        "165100.239000",
        "165101.238000",
        "165102.242000",
        "165103.227000",
        "165104.254000",
        "165105.256000",
        "165106.205000",
        "165107.228000",
        "165108.238000",
        "165109.246000",
        "165110.228000",
        "165111.195000",
        "165112.225000",
        "165113.249000",
        "165114.239000",
        "165115.228000",
        "165116.241000",
        "165117.233000",
        "165118.211000",
        "165119.281000",
        "165120.234000",
        "165121.242000",
        "165122.218000",
        "165123.236000",
        "165124.242000",
        "165125.241000",
        "165126.233000",
        "165127.231000",
        "165128.234000",
        "165129.237000",
        "165130.265000",
        "165131.227000",
        "165132.255000",
        "165133.240000",
        "165134.238000",
        "165135.228000",
        "165136.251000",
        "165137.251000",
        "165138.233000",
        "165139.250000",
        "165140.237000",
        "165141.262000",
        "165142.265000",
        "165143.242000",
        "165144.245000",
        "165145.224000",
        "165146.208000",
        "165147.250000",
        "165148.243000",
        "165149.220000",
        "165150.240000",
        "165151.246000",
        "165152.222000",
        "165153.254000",
        "165154.256000",
        "165155.228000",
        "165156.224000",
        "165157.265000",
        "165158.251000",
        "165159.240000",
        "165200.245000",
        "165201.243000",
        "165202.217000",
        "165203.242000",
        "165204.220000",
        "165205.239000",
        "165206.234000",
        "165207.244000",
        "165208.259000",
        "165209.230000",
        "165210.253000",
        "165211.239000",
        "165212.257000",
        "165213.240000",
        "165214.229000",
        "165215.276000",
        "165216.224000",
        "165217.301000",
        "165218.243000",
        "165219.251000",
        "165220.235000",
        "165221.254000",
        "165222.227000",
        "165223.212000",
        "165224.228000",
        "165225.240000",
        "165226.251000",
        "165227.239000",
        "165228.249000",
        "165229.269000",
        "165230.234000",
        "165231.271000",
        "165232.304000",
        "165233.227000",
        "165234.236000",
        "165235.287000",
        "165236.231000",
        "165237.238000",
        "165238.234000",
        "165239.251000",
        "165240.239000",
        "165241.229000",
        "165242.241000",
        "165243.240000",
        "165244.221000",
        "165245.239000",
        "165246.261000",
        "165247.240000",
        "165248.242000",
        "165249.279000",
        "165250.224000",
        "165251.251000",
        "165252.229000",
        "165253.233000",
        "165254.237000",
        "165255.253000",
        "165256.253000",
        "165257.213000",
        "165258.243000",
        "165259.258000",
        "165300.244000",
        "165301.206000",
        "165302.233000",
        "165303.236000",
        "165304.223000",
        "165305.240000",
        "165306.244000",
        "165307.260000",
        "165308.266000",
        "165309.224000",
        "165310.229000",
        "165311.226000",
        "165312.211000",
        "165313.240000",
        "165314.234000",
        "165315.240000",
        "165316.236000",
        "165317.214000",
        "165318.229000",
        "165319.258000",
        "165320.223000",
        "165321.246000",
        "165322.238000",
        "165323.237000",
        "165324.235000",
        "165325.237000",
