{
  "AcquisitionMatrixPE": 96,
  "AcquisitionNumber": 1,
  "AcquisitionTime": "16:33:10.962500",
  "BandwidthPerPixelPhaseEncode": 18.939,
  "BaseResolution": 96,
  "BodyPartExamined": "BRAIN",
  "ConsistencyInfo": "N4_VE11C_LATEST_20160120",
  "ConversionSoftware": "dcm2niix",
  "ConversionSoftwareVersion": "v1.0.20170923 (OpenJPEG build) GCC6.3.0",
  "DerivedVendorReportedEchoSpacing": 0.000550011,
  "DeviceSerialNumber": "66112",
  "DwellTime": 2.2e-06,
  "EchoTime": 0.033,
  "EchoTrainLength": 96,
  "EffectiveEchoSpacing": 0.000550011,
  "FlipAngle": 59,
  "ImageType": [
    "ORIGINAL",
    "PRIMARY",
    "FMRI",
    "NONE",
    "ND",
    "NORM",
    "MOSAIC"
  ],
  "InstitutionAddress": "Maynard_3_Hanover_NH_US_03755",
  "InstitutionName": "Dartmouth_College_-_PBS",
  "MagneticFieldStrength": 3,
  "Manufacturer": "Siemens",
  "ManufacturersModelName": "Prisma",
  "Modality": "MR",
  "MultibandAccelerationFactor": 4,
  "PercentPhaseFOV": 100,
  "PhaseEncodingDirection": "j-",
  "PhaseEncodingSteps": 96,
  "PhaseResolution": 1,
  "ProcedureStepDescription": "Gobbini_Matteo_1038_hyperface",
  "ProtocolName": "func_run-03_task-visualmemory",
  "PulseSequenceDetails": "%SiemensSeq%_ep2d_bold",
  "ReceiveCoilActiveElements": "HEA;HEP",
  "ReceiveCoilName": "Head_32",
  "ReconMatrixPE": 96,
  "RepetitionTime": 1,
  "ScanOptions": "FS",
  "ScanningSequence": "EP",
  "SequenceName": "_epfid2d1_96",
  "SequenceVariant": "SK",
  "SeriesDescription": "func_run-03_task-visualmemory",
  "SliceTiming": [
    0.735,
    0,
    0.49,
    0.0825,
    0.5725,
    0.1625,
    0.6525,
    0.3275,
    0.8175,
    0.4075,
    0.8975,
    0.245,
    0.735,
    0,
    0.49,
    0.0825,
    0.5725,
    0.1625,
    0.6525,
    0.3275,
    0.8175,
    0.4075,
    0.8975,
    0.245,
    0.735,
    0,
    0.49,
    0.0825,
    0.5725,
    0.1625,
    0.6525,
    0.3275,
    0.8175,
    0.4075,
    0.8975,
    0.245,
    0.735,
    0,
    0.49,
    0.0825,
    0.5725,
    0.1625,
    0.6525,
    0.3275,
    0.8175,
    0.4075,
    0.8975,
    0.245
  ],
  "SoftwareVersions": "syngo_MR_E11",
  "StationName": "AWP66112",
  "TotalReadoutTime": 0.0522511,
  "dcmmeta_affine": [
    [
      -2.496321201324463,
      0.04531674459576607,
      0.12777525186538696,
      117.61424255371094
    ],
    [
      0.06510129570960999,
      2.467456102371216,
      0.39676445722579956,
      -111.07263946533203
    ],
    [
      0.11891989409923553,
      -0.39950796961784363,
      2.465005397796631,
      -46.509521484375
    ],
    [
      0.0,
      0.0,
      0.0,
      1.0
    ]
  ],
  "dcmmeta_reorient_transform": [
    [
      0.0,
      -1.0,
      0.0,
      95.0
    ],
    [
      1.0,
      0.0,
      0.0,
      0.0
    ],
    [
      0.0,
      0.0,
      1.0,
      0.0
    ],
    [
      0.0,
      0.0,
      0.0,
      1.0
    ]
  ],
  "dcmmeta_shape": [
    96,
    96,
    48,
    288
  ],
  "dcmmeta_slice_dim": 2,
  "dcmmeta_version": 0.6,
  "global": {
    "const": {
      "AccessionNumber": "A001173",
      "AcquisitionMatrix": [
        96,
        0,
        0,
        96
      ],
      "AngioFlag": "N",
      "BitsAllocated": 16,
      "BitsStored": 12,
      "BodyPartExamined": "BRAIN",
      "Columns": 672,
      "EchoNumbers": 1,
      "EchoTime": 33.0,
      "EchoTrainLength": 96,
      "FlipAngle": 59.0,
      "HighBit": 11,
      "ImageOrientationPatient": [
        0.99852850767904,
        -0.0260405195249,
        0.04756795870282,
        0.01812669767366,
        0.98698245361245,
        0.15980318861838
      ],
      "ImagePositionPatient": [
        -853.91107850762,
        -815.21388393532,
        -233.77000319073
      ],
      "ImageType": [
        "ORIGINAL",
        "PRIMARY",
        "FMRI",
        "NONE",
        "ND",
        "NORM",
        "MOSAIC"
      ],
      "ImagedNucleus": "1H",
      "ImagingFrequency": 123.252319,
      "InPlanePhaseEncodingDirection": "COL",
      "MRAcquisitionType": "2D",
      "MagneticFieldStrength": 3.0,
      "Manufacturer": "SIEMENS",
      "ManufacturerModelName": "Prisma",
      "Modality": "MR",
      "NumberOfAverages": 1.0,
      "NumberOfPhaseEncodingSteps": 96,
      "PercentPhaseFieldOfView": 100.0,
      "PercentSampling": 100.0,
      "PerformedProcedureStepStartTime": "161024.008000",
      "PhotometricInterpretation": "MONOCHROME2",
      "PixelBandwidth": 2365.0,
      "PixelRepresentation": 0,
      "PixelSpacing": [
        2.5,
        2.5
      ],
      "PositionReferenceIndicator": "",
      "ProtocolName": "func_run-03_task-visualmemory",
      "RepetitionTime": 1000.0,
      "Rows": 672,
      "SAR": 0.04146772301489,
      "SamplesPerPixel": 1,
      "ScanOptions": "FS",
      "ScanningSequence": "EP",
      "SequenceName": "*epfid2d1_96",
      "SequenceVariant": "SK",
      "SeriesDescription": "func_run-03_task-visualmemory",
      "SeriesNumber": 22,
      "SeriesTime": "163311.949000",
      "SliceLocation": -57.475082137786,
      "SliceThickness": 2.5,
      "SmallestImagePixelValue": 0,
      "SoftwareVersions": "syngo MR E11",
      "SpacingBetweenSlices": 2.4999999831241,
      "SpecificCharacterSet": "ISO_IR 100",
      "StudyID": "1",
      "StudyTime": "161023.913000",
      "TransmitCoilName": "Body",
      "VariableFlipAngleFlag": "N",
      "WindowCenterWidthExplanation": "Algo1",
      "dBdt": 0.0
    },
    "slices": {}
  },
  "time": {
    "samples": {
      "AcquisitionNumber": [
        1,
        2,
        3,
        4,
        5,
        6,
        7,
        8,
        9,
        10,
        11,
        12,
        13,
        14,
        15,
        16,
        17,
        18,
        19,
        20,
        21,
        22,
        23,
        24,
        25,
        26,
        27,
        28,
        29,
        30,
        31,
        32,
        33,
        34,
        35,
        36,
        37,
        38,
        39,
        40,
        41,
        42,
        43,
        44,
        45,
        46,
        47,
        48,
        49,
        50,
        51,
        52,
        53,
        54,
        55,
        56,
        57,
        58,
        59,
        60,
        61,
        62,
        63,
        64,
        65,
        66,
        67,
        68,
        69,
        70,
        71,
        72,
        73,
        74,
        75,
        76,
        77,
        78,
        79,
        80,
        81,
        82,
        83,
        84,
        85,
        86,
        87,
        88,
        89,
        90,
        91,
        92,
        93,
        94,
        95,
        96,
        97,
        98,
        99,
        100,
        101,
        102,
        103,
        104,
        105,
        106,
        107,
        108,
        109,
        110,
        111,
        112,
        113,
        114,
        115,
        116,
        117,
        118,
        119,
        120,
        121,
        122,
        123,
        124,
        125,
        126,
        127,
        128,
        129,
        130,
        131,
        132,
        133,
        134,
        135,
        136,
        137,
        138,
        139,
        140,
        141,
        142,
        143,
        144,
        145,
        146,
        147,
        148,
        149,
        150,
        151,
        152,
        153,
        154,
        155,
        156,
        157,
        158,
        159,
        160,
        161,
        162,
        163,
        164,
        165,
        166,
        167,
        168,
        169,
        170,
        171,
        172,
        173,
        174,
        175,
        176,
        177,
        178,
        179,
        180,
        181,
        182,
        183,
        184,
        185,
        186,
        187,
        188,
        189,
        190,
        191,
        192,
        193,
        194,
        195,
        196,
        197,
        198,
        199,
        200,
        201,
        202,
        203,
        204,
        205,
        206,
        207,
        208,
        209,
        210,
        211,
        212,
        213,
        214,
        215,
        216,
        217,
        218,
        219,
        220,
        221,
        222,
        223,
        224,
        225,
        226,
        227,
        228,
        229,
        230,
        231,
        232,
        233,
        234,
        235,
        236,
        237,
        238,
        239,
        240,
        241,
        242,
        243,
        244,
        245,
        246,
        247,
        248,
        249,
        250,
        251,
        252,
        253,
        254,
        255,
        256,
        257,
        258,
        259,
        260,
        261,
        262,
        263,
        264,
        265,
        266,
        267,
        268,
        269,
        270,
        271,
        272,
        273,
        274,
        275,
        276,
        277,
        278,
        279,
        280,
        281,
        282,
        283,
        284,
        285,
        286,
        287,
        288
      ],
      "AcquisitionTime": [
        "163310.962500",
        "163311.962500",
        "163312.962500",
        "163313.962500",
        "163314.962500",
        "163315.962500",
        "163316.962500",
        "163317.962500",
        "163318.962500",
        "163319.962500",
        "163320.962500",
        "163321.962500",
        "163322.962500",
        "163323.962500",
        "163324.962500",
        "163325.962500",
        "163326.962500",
        "163327.962500",
        "163328.962500",
        "163329.962500",
        "163330.962500",
        "163331.962500",
        "163332.962500",
        "163333.962500",
        "163334.962500",
        "163335.962500",
        "163336.962500",
        "163337.962500",
        "163338.962500",
        "163339.962500",
        "163340.962500",
        "163341.962500",
        "163342.962500",
        "163343.962500",
        "163344.962500",
        "163345.962500",
        "163346.962500",
        "163347.962500",
        "163348.962500",
        "163349.962500",
        "163350.962500",
        "163351.962500",
        "163352.962500",
        "163353.962500",
        "163354.962500",
        "163355.962500",
        "163356.962500",
        "163357.962500",
        "163358.962500",
        "163359.962500",
        "163400.962500",
        "163401.962500",
        "163402.962500",
        "163403.962500",
        "163404.962500",
        "163405.962500",
        "163406.962500",
        "163407.962500",
        "163408.962500",
        "163409.962500",
        "163410.962500",
        "163411.962500",
        "163412.962500",
        "163413.962500",
        "163414.962500",
        "163415.962500",
        "163416.962500",
        "163417.962500",
        "163418.962500",
        "163419.962500",
        "163420.962500",
        "163421.962500",
        "163422.962500",
        "163423.962500",
        "163424.962500",
        "163425.962500",
        "163426.962500",
        "163427.962500",
        "163428.962500",
        "163429.962500",
        "163430.962500",
        "163431.962500",
        "163432.962500",
        "163433.962500",
        "163434.962500",
        "163435.962500",
        "163436.962500",
        "163437.962500",
        "163438.962500",
        "163439.962500",
        "163440.962500",
        "163441.962500",
        "163442.962500",
        "163443.962500",
        "163444.962500",
        "163445.962500",
        "163446.962500",
        "163447.962500",
        "163448.962500",
        "163449.962500",
        "163450.962500",
        "163451.962500",
        "163452.962500",
        "163453.962500",
        "163454.962500",
        "163455.962500",
        "163456.962500",
        "163457.962500",
        "163458.962500",
        "163459.962500",
        "163500.962500",
        "163501.962500",
        "163502.962500",
        "163503.962500",
        "163504.962500",
        "163505.962500",
        "163506.962500",
        "163507.962500",
        "163508.962500",
        "163509.962500",
        "163510.962500",
        "163511.962500",
        "163512.962500",
        "163513.962500",
        "163514.962500",
        "163515.962500",
        "163516.962500",
        "163517.962500",
        "163518.962500",
        "163519.962500",
        "163520.962500",
        "163521.962500",
        "163522.962500",
        "163523.962500",
        "163524.962500",
        "163525.962500",
        "163526.962500",
        "163527.962500",
        "163528.962500",
        "163529.962500",
        "163530.962500",
        "163531.962500",
        "163532.962500",
        "163533.962500",
        "163534.962500",
        "163535.962500",
        "163536.962500",
        "163537.962500",
        "163538.962500",
        "163539.962500",
        "163540.962500",
        "163541.962500",
        "163542.962500",
        "163543.962500",
        "163544.962500",
        "163545.962500",
        "163546.962500",
        "163547.962500",
        "163548.962500",
        "163549.962500",
        "163550.962500",
        "163551.962500",
        "163552.962500",
        "163553.962500",
        "163554.962500",
        "163555.962500",
        "163556.962500",
        "163557.962500",
        "163558.962500",
        "163559.962500",
        "163600.962500",
        "163601.962500",
        "163602.962500",
        "163603.962500",
        "163604.962500",
        "163605.962500",
        "163606.962500",
        "163607.962500",
        "163608.962500",
        "163609.962500",
        "163610.962500",
        "163611.962500",
        "163612.962500",
        "163613.962500",
        "163614.962500",
        "163615.962500",
        "163616.962500",
        "163617.962500",
        "163618.962500",
        "163619.962500",
        "163620.962500",
        "163621.962500",
        "163622.962500",
        "163623.962500",
        "163624.962500",
        "163625.962500",
        "163626.962500",
        "163627.962500",
        "163628.962500",
        "163629.962500",
        "163630.962500",
        "163631.962500",
        "163632.962500",
        "163633.962500",
        "163634.962500",
        "163635.962500",
        "163636.962500",
        "163637.962500",
        "163638.962500",
        "163639.962500",
        "163640.962500",
        "163641.962500",
        "163642.962500",
        "163643.962500",
        "163644.962500",
        "163645.962500",
        "163646.962500",
        "163647.962500",
        "163648.962500",
        "163649.962500",
        "163650.962500",
        "163651.962500",
        "163652.962500",
        "163653.962500",
        "163654.962500",
        "163655.962500",
        "163656.962500",
        "163657.962500",
        "163658.962500",
        "163659.962500",
        "163700.962500",
        "163701.962500",
        "163702.962500",
        "163703.962500",
        "163704.962500",
        "163705.962500",
        "163706.962500",
        "163707.962500",
        "163708.962500",
        "163709.962500",
        "163710.962500",
        "163711.962500",
        "163712.962500",
        "163713.962500",
        "163714.962500",
        "163715.962500",
        "163716.962500",
        "163717.962500",
        "163718.962500",
        "163719.962500",
        "163720.962500",
        "163721.962500",
        "163722.962500",
        "163723.962500",
        "163724.962500",
        "163725.962500",
        "163726.962500",
        "163727.962500",
        "163728.962500",
        "163729.962500",
        "163730.962500",
        "163731.962500",
        "163732.962500",
        "163733.962500",
        "163734.962500",
        "163735.962500",
        "163736.962500",
        "163737.962500",
        "163738.962500",
        "163739.962500",
        "163740.962500",
        "163741.962500",
        "163742.962500",
        "163743.962500",
        "163744.962500",
        "163745.962500",
        "163746.962500",
        "163747.962500",
        "163748.962500",
        "163749.962500",
        "163750.962500",
        "163751.962500",
        "163752.962500",
        "163753.962500",
        "163754.962500",
        "163755.962500",
        "163756.962500",
        "163757.962500"
      ],
      "ContentTime": [
        "163311.953000",
        "163312.749000",
        "163313.767000",
        "163314.758000",
        "163315.765000",
        "163316.793000",
        "163317.775000",
        "163318.744000",
        "163319.794000",
        "163320.737000",
        "163321.755000",
        "163322.732000",
        "163323.743000",
        "163324.765000",
        "163325.820000",
        "163326.775000",
        "163327.805000",
        "163328.776000",
        "163329.729000",
        "163330.764000",
        "163331.746000",
        "163332.795000",
        "163333.777000",
        "163334.771000",
        "163335.756000",
        "163336.761000",
        "163337.756000",
        "163338.785000",
        "163339.772000",
        "163340.750000",
        "163341.731000",
        "163342.789000",
        "163343.745000",
        "163344.770000",
        "163345.768000",
        "163346.793000",
        "163347.742000",
        "163348.714000",
        "163349.766000",
        "163350.762000",
        "163351.759000",
        "163352.723000",
        "163353.747000",
        "163354.787000",
        "163355.756000",
        "163356.743000",
        "163357.740000",
        "163358.766000",
        "163359.763000",
        "163400.782000",
        "163401.766000",
        "163402.756000",
        "163403.750000",
        "163404.810000",
        "163405.750000",
        "163406.760000",
        "163407.742000",
        "163408.772000",
        "163409.740000",
        "163410.765000",
        "163411.790000",
        "163412.748000",
        "163413.740000",
        "163414.735000",
        "163415.774000",
        "163416.758000",
        "163417.761000",
        "163418.786000",
        "163419.752000",
        "163420.762000",
        "163421.752000",
        "163422.719000",
        "163423.726000",
        "163424.750000",
        "163425.732000",
        "163426.722000",
        "163427.743000",
        "163428.746000",
        "163429.745000",
        "163430.724000",
        "163431.741000",
        "163432.751000",
        "163433.780000",
        "163434.761000",
        "163435.745000",
        "163436.741000",
        "163437.754000",
        "163438.877000",
        "163439.757000",
        "163440.758000",
        "163441.776000",
        "163442.766000",
        "163443.754000",
        "163444.738000",
        "163445.756000",
        "163446.772000",
        "163447.766000",
        "163448.747000",
        "163449.741000",
        "163450.771000",
        "163451.782000",
        "163452.774000",
        "163453.777000",
        "163454.768000",
        "163455.785000",
        "163456.760000",
        "163457.739000",
        "163458.740000",
        "163459.772000",
        "163500.775000",
        "163501.756000",
        "163502.748000",
        "163503.776000",
        "163504.759000",
        "163505.716000",
        "163506.765000",
        "163507.801000",
        "163508.735000",
        "163509.752000",
        "163510.729000",
        "163511.759000",
        "163512.740000",
        "163513.767000",
        "163514.747000",
        "163515.719000",
        "163516.774000",
        "163517.788000",
        "163518.741000",
        "163519.740000",
        "163520.786000",
        "163521.739000",
        "163522.810000",
        "163523.729000",
        "163524.749000",
        "163525.776000",
        "163526.789000",
        "163527.750000",
        "163528.776000",
        "163529.776000",
        "163530.744000",
        "163531.768000",
        "163532.754000",
        "163533.765000",
        "163534.721000",
        "163535.721000",
        "163536.797000",
        "163537.731000",
        "163538.766000",
        "163539.773000",
        "163540.757000",
        "163541.778000",
        "163542.766000",
        "163543.734000",
        "163544.749000",
        "163545.780000",
        "163546.770000",
        "163547.769000",
        "163548.755000",
        "163549.781000",
        "163550.750000",
        "163551.734000",
        "163552.761000",
        "163553.761000",
        "163554.751000",
        "163555.747000",
        "163556.711000",
        "163557.777000",
        "163558.774000",
        "163559.766000",
        "163600.753000",
        "163601.745000",
        "163602.748000",
        "163603.752000",
        "163604.753000",
        "163605.727000",
        "163606.744000",
        "163607.767000",
        "163608.754000",
        "163609.757000",
        "163610.770000",
        "163611.752000",
        "163612.757000",
        "163613.765000",
        "163614.761000",
        "163615.770000",
        "163616.746000",
        "163617.747000",
        "163618.737000",
        "163619.771000",
        "163620.763000",
        "163621.761000",
        "163622.748000",
        "163623.743000",
        "163624.767000",
        "163625.768000",
        "163626.766000",
        "163627.785000",
        "163628.756000",
        "163629.781000",
        "163630.788000",
        "163631.746000",
        "163632.758000",
        "163633.761000",
        "163634.752000",
        "163635.756000",
        "163636.760000",
        "163637.761000",
        "163638.747000",
        "163639.752000",
        "163640.728000",
        "163641.753000",
        "163642.771000",
        "163643.755000",
        "163644.785000",
        "163645.773000",
        "163646.758000",
        "163647.771000",
        "163648.767000",
        "163649.765000",
        "163650.811000",
        "163651.796000",
        "163652.781000",
        "163653.785000",
        "163654.825000",
        "163655.759000",
        "163656.775000",
        "163657.762000",
        "163658.767000",
        "163659.737000",
        "163700.744000",
        "163701.756000",
        "163702.752000",
        "163703.740000",
        "163704.788000",
        "163705.763000",
        "163706.760000",
        "163707.764000",
        "163708.719000",
        "163709.780000",
        "163710.745000",
        "163711.729000",
        "163712.763000",
        "163713.748000",
        "163714.771000",
        "163715.755000",
        "163716.759000",
        "163717.757000",
        "163718.745000",
        "163719.748000",
        "163720.764000",
        "163721.768000",
        "163722.757000",
        "163723.775000",
        "163724.759000",
        "163725.768000",
        "163726.727000",
        "163727.744000",
        "163728.735000",
        "163729.745000",
        "163730.783000",
        "163731.781000",
        "163732.756000",
        "163733.756000",
        "163734.743000",
        "163735.744000",
        "163736.760000",
        "163737.764000",
        "163738.775000",
        "163739.741000",
        "163740.769000",
        "163741.798000",
        "163742.744000",
        "163743.748000",
        "163744.754000",
        "163745.748000",
        "163746.755000",
        "163747.742000",
        "163748.757000",
        "163749.764000",
        "163750.764000",
        "163751.753000",
        "163752.750000",
        "163753.732000",
        "163754.766000",
        "163755.739000",
        "163756.758000",
        "163757.758000",
        "163758.806000"
      ],
      "InstanceCreationTime": [
        "163311.953000",
        "163312.749000",
        "163313.767000",
        "163314.758000",
        "163315.765000",
        "163316.793000",
        "163317.775000",
        "163318.744000",
        "163319.794000",
        "163320.737000",
        "163321.755000",
        "163322.732000",
        "163323.743000",
        "163324.765000",
        "163325.820000",
        "163326.775000",
        "163327.805000",
        "163328.776000",
        "163329.729000",
        "163330.764000",
        "163331.746000",
        "163332.795000",
        "163333.777000",
        "163334.771000",
        "163335.756000",
        "163336.761000",
        "163337.756000",
        "163338.785000",
        "163339.772000",
        "163340.750000",
        "163341.731000",
        "163342.789000",
        "163343.745000",
        "163344.770000",
        "163345.768000",
        "163346.793000",
        "163347.742000",
        "163348.714000",
        "163349.766000",
        "163350.762000",
        "163351.759000",
        "163352.723000",
        "163353.747000",
        "163354.787000",
        "163355.756000",
        "163356.743000",
        "163357.740000",
        "163358.766000",
        "163359.763000",
        "163400.782000",
        "163401.766000",
        "163402.756000",
        "163403.750000",
        "163404.810000",
        "163405.750000",
        "163406.760000",
        "163407.742000",
        "163408.772000",
        "163409.740000",
        "163410.765000",
        "163411.790000",
        "163412.748000",
        "163413.740000",
        "163414.735000",
        "163415.774000",
        "163416.758000",
        "163417.761000",
        "163418.786000",
        "163419.752000",
        "163420.762000",
        "163421.752000",
        "163422.719000",
        "163423.726000",
        "163424.750000",
        "163425.732000",
        "163426.722000",
        "163427.743000",
        "163428.746000",
        "163429.745000",
        "163430.724000",
        "163431.741000",
        "163432.751000",
        "163433.780000",
        "163434.761000",
        "163435.745000",
        "163436.741000",
        "163437.754000",
        "163438.877000",
        "163439.757000",
        "163440.758000",
        "163441.776000",
        "163442.766000",
        "163443.754000",
        "163444.738000",
        "163445.756000",
        "163446.772000",
        "163447.766000",
        "163448.747000",
        "163449.741000",
        "163450.771000",
        "163451.782000",
        "163452.774000",
        "163453.777000",
        "163454.768000",
        "163455.785000",
        "163456.760000",
        "163457.739000",
        "163458.740000",
        "163459.772000",
        "163500.775000",
        "163501.756000",
        "163502.748000",
        "163503.776000",
        "163504.759000",
        "163505.716000",
        "163506.765000",
        "163507.801000",
        "163508.735000",
        "163509.752000",
        "163510.729000",
        "163511.759000",
        "163512.740000",
        "163513.767000",
        "163514.747000",
        "163515.719000",
        "163516.774000",
        "163517.788000",
        "163518.741000",
        "163519.740000",
        "163520.786000",
        "163521.739000",
        "163522.810000",
        "163523.729000",
        "163524.749000",
        "163525.776000",
        "163526.789000",
        "163527.750000",
        "163528.776000",
        "163529.776000",
        "163530.744000",
        "163531.768000",
        "163532.754000",
        "163533.765000",
        "163534.721000",
        "163535.721000",
        "163536.797000",
        "163537.731000",
        "163538.766000",
        "163539.773000",
        "163540.757000",
        "163541.778000",
        "163542.766000",
        "163543.734000",
        "163544.749000",
        "163545.780000",
        "163546.770000",
        "163547.769000",
        "163548.755000",
        "163549.781000",
        "163550.750000",
        "163551.734000",
        "163552.761000",
        "163553.761000",
        "163554.751000",
        "163555.747000",
        "163556.711000",
        "163557.777000",
        "163558.774000",
        "163559.766000",
        "163600.753000",
        "163601.745000",
        "163602.748000",
        "163603.752000",
        "163604.753000",
        "163605.727000",
        "163606.744000",
        "163607.767000",
        "163608.754000",
        "163609.757000",
        "163610.770000",
        "163611.752000",
        "163612.757000",
        "163613.765000",
        "163614.761000",
        "163615.770000",
        "163616.746000",
        "163617.747000",
        "163618.737000",
        "163619.771000",
        "163620.763000",
        "163621.761000",
        "163622.748000",
        "163623.743000",
        "163624.767000",
        "163625.768000",
        "163626.766000",
        "163627.785000",
        "163628.756000",
        "163629.781000",
        "163630.788000",
        "163631.746000",
        "163632.758000",
        "163633.761000",
        "163634.752000",
        "163635.756000",
        "163636.760000",
        "163637.761000",
        "163638.747000",
        "163639.752000",
        "163640.728000",
        "163641.753000",
        "163642.771000",
        "163643.755000",
        "163644.785000",
        "163645.773000",
        "163646.758000",
        "163647.771000",
        "163648.767000",
        "163649.765000",
        "163650.811000",
        "163651.796000",
        "163652.781000",
        "163653.785000",
        "163654.825000",
        "163655.759000",
        "163656.775000",
        "163657.762000",
        "163658.767000",
        "163659.737000",
        "163700.744000",
        "163701.756000",
        "163702.752000",
        "163703.740000",
        "163704.788000",
        "163705.763000",
        "163706.760000",
        "163707.764000",
        "163708.719000",
        "163709.780000",
        "163710.745000",
        "163711.729000",
        "163712.763000",
        "163713.748000",
        "163714.771000",
        "163715.755000",
        "163716.759000",
        "163717.757000",
        "163718.745000",
        "163719.748000",
        "163720.764000",
        "163721.768000",
        "163722.757000",
        "163723.775000",
        "163724.759000",
        "163725.768000",
