{
  "AcquisitionMatrixPE": 120,
  "AcquisitionNumber": 1,
  "AcquisitionTime": "21:07:20.547500",
  "BandwidthPerPixelPhaseEncode": 13.889,
  "BaseResolution": 120,
  "BodyPartExamined": "BRAIN",
  "ConsistencyInfo": "N4_VE11C_LATEST_20160120",
  "ConversionSoftware": "dcm2niix",
  "ConversionSoftwareVersion": "v1.0.20171215 (OpenJPEG build) GCC6.3.0",
  "DerivedVendorReportedEchoSpacing": 0.000599995,
  "DeviceSerialNumber": "66112",
  "DwellTime": 2e-06,
  "EchoTime": 0.103,
  "EchoTrainLength": 120,
  "EffectiveEchoSpacing": 0.000599995,
  "FlipAngle": 90,
  "ImageOrientationPatientDICOM": [0.999911, 0.0105439, -0.00812342, -0.010646, 0.999864, -0.0126262],
  "ImageType": [
    "ORIGINAL",
    "PRIMARY",
    "DIFFUSION",
    "NONE",
    "ND",
    "NORM",
    "MOSAIC"
],
  "InPlanePhaseEncodingDirectionDICOM": "COL",
  "InstitutionAddress": "Maynard_3_Hanover_NH_US_03755",
  "InstitutionName": "Dartmouth_College_-_PBS",
  "InstitutionalDepartmentName": "Department",
  "MRAcquisitionType": "2D",
  "MagneticFieldStrength": 3,
  "Manufacturer": "Siemens",
  "ManufacturersModelName": "Prisma",
  "Modality": "MR",
  "MultibandAccelerationFactor": 4,
  "PartialFourier": 1,
  "PatientPosition": "HFS",
  "PercentPhaseFOV": 100,
  "PhaseEncodingDirection": "j-",
  "PhaseEncodingSteps": 120,
  "PhaseResolution": 1,
  "PixelBandwidth": 2085,
  "ProcedureStepDescription": "Gobbini_Matteo_1038_hyperface",
  "ProtocolName": "dwi_acq-2.0mmXhardi96Xsms4X11b0",
  "PulseSequenceDetails": "%SiemensSeq%_ep2d_diff",
  "ReceiveCoilActiveElements": "HEA;HEP",
  "ReceiveCoilName": "Head_32",
  "ReconMatrixPE": 120,
  "RepetitionTime": 2.6,
  "SAR": 0.273952,
  "ScanOptions": "FS",
  "ScanningSequence": "EP",
  "SequenceName": "_ep_b0",
  "SequenceVariant": "SK_SP",
  "SeriesDescription": "dwi_acq-2.0mmXhardi96Xsms4X11b0",
  "SeriesNumber": 65,
  "ShimSetting": [4149, -7783, -7354, 911, -107, -332, 305, 65],
  "SliceThickness": 2,
  "SliceTiming": [1.935, 0, 1.29, 0.16, 1.45, 0.3225, 1.6125, 0.4825, 1.7725, 0.805, 2.095, 0.9675, 2.2575, 1.1275, 2.4175, 0.645, 1.935, 0, 1.29, 0.16, 1.45, 0.3225, 1.6125, 0.4825, 1.7725, 0.805, 2.095, 0.9675, 2.2575, 1.1275, 2.4175, 0.645, 1.935, 0, 1.29, 0.16, 1.45, 0.3225, 1.6125, 0.4825, 1.7725, 0.805, 2.095, 0.9675, 2.2575, 1.1275, 2.4175, 0.645, 1.935, 0, 1.29, 0.16, 1.45, 0.3225, 1.6125, 0.4825, 1.7725, 0.805, 2.095, 0.9675, 2.2575, 1.1275, 2.4175, 0.645],
  "SoftwareVersions": "syngo_MR_E11",
  "SpacingBetweenSlices": 2,
  "StationName": "AWP66112",
  "TotalReadoutTime": 0.0713994,
  "TxRefAmp": 230.503,
  "dcmmeta_affine": [
    [-1.9998228549957275, -0.02129194140434265, -0.015978364273905754, 121.67102813720703],
    [-0.02108779363334179, 1.9997272491455078, -0.025423219427466393, -99.62822723388672],
    [-0.016246838495135307, 0.02525249309837818, 1.9997745752334595, -78.27690887451172],
    [0.0, 0.0, 0.0, 1.0]
],
  "dcmmeta_reorient_transform": [
    [0.0, -1.0, 0.0, 119.0],
    [1.0, 0.0, 0.0, 0.0],
    [0.0, 0.0, 1.0, 0.0],
    [0.0, 0.0, 0.0, 1.0]
],
  "dcmmeta_shape": [120, 120, 64, 107],
  "dcmmeta_slice_dim": 2,
  "dcmmeta_version": 0.6,
  "global": {
    "const": {
      "AccessionNumber": "A001315",
      "AcquisitionMatrix": [120, 0, 0, 120],
      "AngioFlag": "N",
      "BitsAllocated": 16,
      "BitsStored": 12,
      "BodyPartExamined": "BRAIN",
      "Columns": 960,
      "EchoNumbers": 1,
      "EchoTime": 103.0,
      "EchoTrainLength": 120,
      "FlipAngle": 90.0,
      "HighBit": 11,
      "ImageOrientationPatient": [0.99991141422033, 0.01054389702346, -0.0081234196899, -0.0106459703329, 0.99986361131165, -0.0126262460964],
      "ImagePositionPatient": [-950.12026122795, -987.08161823425, -57.842146406635],
      "ImageType": [
        "ORIGINAL",
        "PRIMARY",
        "DIFFUSION",
        "NONE",
        "ND",
        "NORM",
        "MOSAIC"
],
      "ImagedNucleus": "1H",
      "ImagingFrequency": 123.252355,
      "InPlanePhaseEncodingDirection": "COL",
      "MRAcquisitionType": "2D",
      "MagneticFieldStrength": 3.0,
      "Manufacturer": "SIEMENS",
      "ManufacturerModelName": "Prisma",
      "Modality": "MR",
      "NumberOfAverages": 1.0,
      "NumberOfPhaseEncodingSteps": 120,
      "PercentPhaseFieldOfView": 100.0,
      "PercentSampling": 100.0,
      "PerformedProcedureStepStartTime": "200647.584000",
      "PhotometricInterpretation": "MONOCHROME2",
      "PixelBandwidth": 2085.0,
      "PixelRepresentation": 0,
      "PixelSpacing": [2.0, 2.0],
      "PositionReferenceIndicator": "",
      "ProtocolName": "dwi_acq-2.0mmXhardi96Xsms4X11b0",
      "RepetitionTime": 2600.0,
      "Rows": 960,
      "SAR": 0.2739523297371,
      "SamplesPerPixel": 1,
      "ScanOptions": "FS",
      "ScanningSequence": "EP",
      "SequenceVariant": [
        "SK",
        "SP"
],
      "SeriesDescription": "dwi_acq-2.0mmXhardi96Xsms4X11b0",
      "SeriesNumber": 65,
      "SeriesTime": "210826.140000",
      "SliceLocation": -77.973706337399,
      "SliceThickness": 2.0,
      "SmallestImagePixelValue": 0,
      "SoftwareVersions": "syngo MR E11",
      "SpacingBetweenSlices": 2.0000000548049,
      "SpecificCharacterSet": "ISO_IR 100",
      "StudyID": "4",
      "StudyTime": "200647.537000",
      "TransmitCoilName": "Body",
      "VariableFlipAngleFlag": "N",
      "WindowCenterWidthExplanation": "Algo1",
      "dBdt": 0.0},
    "slices": {}
  },
  "time": {
    "samples": {
      "AcquisitionNumber": [1, 2, 3, 4, 5, 6, 7, 8, 9, 10, 11, 12, 13, 14, 15, 16, 17, 18, 19, 20, 21, 22, 23, 24, 25, 26, 27, 28, 29, 30, 31, 32, 33, 34, 35, 36, 37, 38, 39, 40, 41, 42, 43, 44, 45, 46, 47, 48, 49, 50, 51, 52, 53, 54, 55, 56, 57, 58, 59, 60, 61, 62, 63, 64, 65, 66, 67, 68, 69, 70, 71, 72, 73, 74, 75, 76, 77, 78, 79, 80, 81, 82, 83, 84, 85, 86, 87, 88, 89, 90, 91, 92, 93, 94, 95, 96, 97, 98, 99, 100, 101, 102, 103, 104, 105, 106, 107],
      "AcquisitionTime": ["210720.547500", "210723.147500", "210725.747500", "210728.347500", "210730.947500", "210733.547500", "210736.147500", "210738.747500", "210741.347500", "210743.947500", "210746.547500", "210749.147500", "210751.747500", "210754.347500", "210756.947500", "210759.547500", "210802.147500", "210804.747500", "210807.347500", "210809.947500", "210812.547500", "210815.147500", "210817.747500", "210820.347500", "210822.947500", "210825.547500", "210828.147500", "210830.747500", "210833.347500", "210835.947500", "210838.547500", "210841.147500", "210843.747500", "210846.347500", "210848.947500", "210851.547500", "210854.147500", "210856.747500", "210859.347500", "210901.947500", "210904.547500", "210907.147500", "210909.747500", "210912.347500", "210914.947500", "210917.547500", "210920.147500", "210922.747500", "210925.347500", "210927.947500", "210930.547500", "210933.147500", "210935.747500", "210938.347500", "210940.947500", "210943.547500", "210946.147500", "210948.747500", "210951.347500", "210953.947500", "210956.547500", "210959.147500", "211001.747500", "211004.347500", "211006.947500", "211009.547500", "211012.147500", "211014.747500", "211017.347500", "211019.947500", "211022.547500", "211025.147500", "211027.747500", "211030.347500", "211032.947500", "211035.547500", "211038.147500", "211040.747500", "211043.347500", "211045.947500", "211048.547500", "211051.147500", "211053.747500", "211056.347500", "211058.947500", "211101.547500", "211104.147500", "211106.747500", "211109.347500", "211111.947500", "211114.547500", "211117.147500", "211119.747500", "211122.347500", "211124.947500", "211127.547500", "211130.147500", "211132.747500", "211135.347500", "211137.947500", "211140.547500", "211143.147500", "211145.747500", "211148.347500", "211150.947500", "211153.547500", "211156.147500"],
      "ContentTime": ["210826.144000", "210826.147000", "210826.151000", "210826.163000", "210826.166000", "210826.169000", "210826.172000", "210826.175000", "210826.179000", "210826.182000", "210826.186000", "210826.189000", "210826.198000", "210826.201000", "210826.205000", "210826.208000", "210826.211000", "210826.214000", "210826.217000", "210826.220000", "210826.223000", "210826.227000", "210826.230000", "210826.233000", "210826.236000", "210926.147000", "210926.150000", "210926.153000", "210926.156000", "210926.160000", "210926.163000", "210926.166000", "210926.169000", "210926.172000", "210926.176000", "210926.179000", "210926.182000", "210926.185000", "210926.188000", "210926.191000", "210926.195000", "210926.198000", "210926.201000", "210926.204000", "210926.207000", "210926.210000", "210926.213000", "210926.216000", "211026.139000", "211026.143000", "211026.146000", "211026.149000", "211026.152000", "211026.155000", "211026.158000", "211026.162000", "211026.165000", "211026.168000", "211026.171000", "211026.174000", "211026.178000", "211026.181000", "211026.184000", "211026.187000", "211026.190000", "211026.193000", "211026.196000", "211026.200000", "211026.203000", "211026.206000", "211026.209000", "211126.139000", "211126.143000", "211126.146000", "211126.149000", "211126.152000", "211126.156000", "211126.159000", "211126.162000", "211126.165000", "211126.168000", "211126.171000", "211126.175000", "211126.178000", "211126.181000", "211126.184000", "211126.187000", "211126.190000", "211126.193000", "211126.202000", "211126.205000", "211126.208000", "211126.211000", "211126.215000", "211146.139000", "211146.143000", "211146.146000", "211146.149000", "211146.152000", "211146.155000", "211146.158000", "211146.162000", "211158.301000", "211158.304000", "211158.308000", "211158.311000", "211158.314000"],
      "InstanceCreationTime": ["210826.144000", "210826.147000", "210826.151000", "210826.163000", "210826.166000", "210826.169000", "210826.172000", "210826.175000", "210826.179000", "210826.182000", "210826.186000", "210826.189000", "210826.198000", "210826.201000", "210826.205000", "210826.208000", "210826.211000", "210826.214000", "210826.217000", "210826.220000", "210826.223000", "210826.227000", "210826.230000", "210826.233000", "210826.236000", "210926.147000", "210926.150000", "210926.153000", "210926.156000", "210926.160000", "210926.163000", "210926.166000", "210926.169000", "210926.172000", "210926.176000", "210926.179000", "210926.182000", "210926.185000", "210926.188000", "210926.191000", "210926.195000", "210926.198000", "210926.201000", "210926.204000", "210926.207000", "210926.210000", "210926.213000", "210926.216000", "211026.139000", "211026.143000", "211026.146000", "211026.149000", "211026.152000", "211026.155000", "211026.158000", "211026.162000", "211026.165000", "211026.168000", "211026.171000", "211026.174000", "211026.178000", "211026.181000", "211026.184000", "211026.187000", "211026.190000", "211026.193000", "211026.196000", "211026.200000", "211026.203000", "211026.206000", "211026.209000", "211126.139000", "211126.143000", "211126.146000", "211126.149000", "211126.152000", "211126.156000", "211126.159000", "211126.162000", "211126.165000", "211126.168000", "211126.171000", "211126.175000", "211126.178000", "211126.181000", "211126.184000", "211126.187000", "211126.190000", "211126.193000", "211126.202000", "211126.205000", "211126.208000", "211126.211000", "211126.215000", "211146.139000", "211146.143000", "211146.146000", "211146.149000", "211146.152000", "211146.155000", "211146.158000", "211146.162000", "211158.301000", "211158.304000", "211158.308000", "211158.311000", "211158.314000"],
      "InstanceNumber": [1, 2, 3, 4, 5, 6, 7, 8, 9, 10, 11, 12, 13, 14, 15, 16, 17, 18, 19, 20, 21, 22, 23, 24, 25, 26, 27, 28, 29, 30, 31, 32, 33, 34, 35, 36, 37, 38, 39, 40, 41, 42, 43, 44, 45, 46, 47, 48, 49, 50, 51, 52, 53, 54, 55, 56, 57, 58, 59, 60, 61, 62, 63, 64, 65, 66, 67, 68, 69, 70, 71, 72, 73, 74, 75, 76, 77, 78, 79, 80, 81, 82, 83, 84, 85, 86, 87, 88, 89, 90, 91, 92, 93, 94, 95, 96, 97, 98, 99, 100, 101, 102, 103, 104, 105, 106, 107],
      "LargestImagePixelValue": [2337, 2265, 598, 535, 554, 589, 604, 593, 598, 625, 579, 2416, 581, 568, 640, 522, 601, 611, 561, 626, 654, 562, 2469, 606, 598, 598, 554, 592, 561, 611, 623, 520, 586, 2356, 523, 591, 543, 640, 517, 590, 622, 613, 585, 572, 2272, 563, 622, 591, 517, 598, 625, 625, 678, 581, 585, 2578, 489, 539, 587, 636, 581, 653, 570, 688, 539, 598, 2411, 669, 692, 666, 652, 654, 558, 733, 518, 478, 553, 2408, 575, 475, 562, 528, 577, 607, 652, 681, 624, 2226, 601, 686, 619, 607, 478, 579, 629, 684, 630, 2502, 620, 503, 426, 603, 627, 648, 722, 582, 545],
      "SequenceName": [
        "*ep_b0",
        "*ep_b0",
        "*ep_b1000#2",
        "*ep_b1000#3",
        "*ep_b1000#4",
        "*ep_b1000#5",
        "*ep_b1000#6",
        "*ep_b1000#7",
        "*ep_b1000#8",
        "*ep_b1000#9",
        "*ep_b1000#10",
        "*ep_b0",
        "*ep_b1000#12",
        "*ep_b1000#13",
        "*ep_b1000#14",
        "*ep_b1000#15",
        "*ep_b1000#16",
        "*ep_b1000#17",
        "*ep_b1000#18",
        "*ep_b1000#19",
        "*ep_b1000#20",
        "*ep_b1000#21",
        "*ep_b0",
        "*ep_b1000#23",
        "*ep_b1000#24",
        "*ep_b1000#25",
        "*ep_b1000#26",
        "*ep_b1000#27",
        "*ep_b1000#28",
        "*ep_b1000#29",
        "*ep_b1000#30",
        "*ep_b1000#31",
        "*ep_b1000#32",
        "*ep_b0",
        "*ep_b1000#34",
        "*ep_b1000#35",
        "*ep_b1000#36",
        "*ep_b1000#37",
        "*ep_b1000#38",
        "*ep_b1000#39",
        "*ep_b1000#40",
        "*ep_b1000#41",
        "*ep_b1000#42",
        "*ep_b1000#43",
        "*ep_b0",
        "*ep_b1000#45",
        "*ep_b1000#46",
        "*ep_b1000#47",
        "*ep_b1000#48",
        "*ep_b1000#49",
        "*ep_b1000#50",
        "*ep_b1000#51",
        "*ep_b1000#52",
        "*ep_b1000#53",
        "*ep_b1000#54",
        "*ep_b0",
        "*ep_b1000#56",
        "*ep_b1000#57",
        "*ep_b1000#58",
        "*ep_b1000#59",
        "*ep_b1000#60",
        "*ep_b1000#61",
        "*ep_b1000#62",
        "*ep_b1000#63",
        "*ep_b1000#64",
        "*ep_b1000#65",
        "*ep_b0",
        "*ep_b1000#67",
        "*ep_b1000#68",
        "*ep_b1000#69",
        "*ep_b1000#70",
        "*ep_b1000#71",
        "*ep_b1000#72",
        "*ep_b1000#73",
        "*ep_b1000#74",
        "*ep_b1000#75",
        "*ep_b1000#76",
        "*ep_b0",
        "*ep_b1000#78",
        "*ep_b1000#79",
        "*ep_b1000#80",
        "*ep_b1000#81",
        "*ep_b1000#82",
        "*ep_b1000#83",
        "*ep_b1000#84",
        "*ep_b1000#85",
        "*ep_b1000#86",
        "*ep_b0",
        "*ep_b1000#88",
        "*ep_b1000#89",
        "*ep_b1000#90",
        "*ep_b1000#91",
        "*ep_b1000#92",
        "*ep_b1000#93",
        "*ep_b1000#94",
        "*ep_b1000#95",
        "*ep_b1000#96",
        "*ep_b0",
        "*ep_b1000#98",
        "*ep_b1000#99",
        "*ep_b1000#100",
        "*ep_b1000#101",
        "*ep_b1000#102",
        "*ep_b1000#103",
        "*ep_b1000#104",
        "*ep_b1000#105",
        "*ep_b1000#106"
],
      "WindowCenter": [237.0, 232.0, 93.0, 96.0, 94.0, 95.0, 94.0, 94.0, 96.0, 92.0, 96.0, 238.0, 96.0, 93.0, 93.0, 94.0, 95.0, 93.0, 95.0, 96.0, 94.0, 95.0, 239.0, 94.0, 96.0, 94.0, 93.0, 95.0, 93.0, 95.0, 94.0, 94.0, 97.0, 234.0, 94.0, 95.0, 92.0, 96.0, 93.0, 95.0, 95.0, 94.0, 94.0, 96.0, 229.0, 93.0, 94.0, 96.0, 93.0, 94.0, 94.0, 94.0, 95.0, 94.0, 95.0, 245.0, 95.0, 92.0, 95.0, 93.0, 96.0, 95.0, 94.0, 95.0, 94.0, 94.0, 238.0, 95.0, 97.0, 95.0, 94.0, 94.0, 94.0, 96.0, 93.0, 94.0, 94.0, 237.0, 95.0, 93.0, 95.0, 93.0, 95.0, 94.0, 96.0, 96.0, 94.0, 228.0, 94.0, 95.0, 96.0, 95.0, 94.0, 93.0, 97.0, 95.0, 95.0, 240.0, 95.0, 94.0, 92.0, 94.0, 95.0, 95.0, 95.0, 95.0, 92.0],
      "WindowWidth": [550.0, 539.0, 239.0, 247.0, 242.0, 244.0, 243.0, 244.0, 246.0, 238.0, 246.0, 548.0, 246.0, 241.0, 240.0, 243.0, 245.0, 239.0, 244.0, 246.0, 242.0, 244.0, 548.0, 243.0, 246.0, 242.0, 241.0, 244.0, 241.0, 245.0, 241.0, 242.0, 248.0, 542.0, 242.0, 245.0, 237.0, 247.0, 239.0, 245.0, 246.0, 243.0, 242.0, 246.0, 533.0, 240.0, 242.0, 247.0, 241.0, 242.0, 242.0, 243.0, 243.0, 243.0, 244.0, 557.0, 244.0, 238.0, 245.0, 240.0, 247.0, 245.0, 243.0, 244.0, 242.0, 242.0, 547.0, 244.0, 248.0, 244.0, 243.0, 243.0, 241.0, 247.0, 240.0, 243.0, 242.0, 545.0, 246.0, 240.0, 244.0, 240.0, 244.0, 243.0, 246.0, 246.0, 242.0, 533.0, 243.0, 244.0, 246.0, 244.0, 242.0, 240.0, 248.0, 245.0, 244.0, 550.0, 245.0, 242.0, 238.0, 243.0, 244.0, 245.0, 244.0, 244.0, 238.0]
    },
    "slices": {}
  }
}