{
  "AcquisitionMatrixPE": 120,
  "AcquisitionNumber": 1,
  "BandwidthPerPixelPhaseEncode": 13.889,
  "BaseResolution": 120,
  "BodyPartExamined": "BRAIN",
  "ConsistencyInfo": "N4_VE11C_LATEST_20160120",
  "ConversionSoftware": "dcm2niix",
  "ConversionSoftwareVersion": "v1.0.20170923 (OpenJPEG build) GCC6.3.0",
  "DerivedVendorReportedEchoSpacing": 0.000599995,
  "DeviceSerialNumber": "66112",
  "DwellTime": 2e-06,
  "EchoTime": 0.103,
  "EchoTrainLength": 120,
  "EffectiveEchoSpacing": 0.000599995,
  "FlipAngle": 90,
  "ImageType": [
    "ORIGINAL",
    "PRIMARY",
    "DIFFUSION",
    "NONE",
    "ND",
    "NORM",
    "MOSAIC"
  ],
  "InstitutionAddress": "Maynard_3_Hanover_NH_US_03755",
  "InstitutionName": "Dartmouth_College_-_PBS",
  "MagneticFieldStrength": 3,
  "Manufacturer": "Siemens",
  "ManufacturersModelName": "Prisma",
  "Modality": "MR",
  "MultibandAccelerationFactor": 4,
  "PartialFourier": 1,
  "PercentPhaseFOV": 100,
  "PhaseEncodingDirection": "j-",
  "PhaseEncodingSteps": 120,
  "PhaseResolution": 1,
  "ProcedureStepDescription": "Gobbini_Matteo_1038_hyperface",
  "ProtocolName": "dwi_acq-2.0mmXhardi96Xsms4X11b0",
  "PulseSequenceDetails": "%SiemensSeq%_ep2d_diff",
  "ReceiveCoilActiveElements": "HEA;HEP",
  "ReceiveCoilName": "Head_32",
  "ReconMatrixPE": 120,
  "RepetitionTime": 2.6,
  "ScanOptions": "FS",
  "ScanningSequence": "EP",
  "SequenceName": "_ep_b0",
  "SequenceVariant": "SK_SP",
  "SeriesDescription": "dwi_acq-2.0mmXhardi96Xsms4X11b0",
  "SliceTiming": [
    1.935,
    0,
    1.29,
    0.1625,
    1.4525,
    0.3225,
    1.6125,
    0.485,
    1.775,
    0.8075,
    2.095,
    0.9675,
    2.2575,
    1.13,
    2.4175,
    0.645,
    1.935,
    0,
    1.29,
    0.1625,
    1.4525,
    0.3225,
    1.6125,
    0.485,
    1.775,
    0.8075,
    2.095,
    0.9675,
    2.2575,
    1.13,
    2.4175,
    0.645,
    1.935,
    0,
    1.29,
    0.1625,
    1.4525,
    0.3225,
    1.6125,
    0.485,
    1.775,
    0.8075,
    2.095,
    0.9675,
    2.2575,
    1.13,
    2.4175,
    0.645,
    1.935,
    0,
    1.29,
    0.1625,
    1.4525,
    0.3225,
    1.6125,
    0.485,
    1.775,
    0.8075,
    2.095,
    0.9675,
    2.2575,
    1.13,
    2.4175,
    0.645
  ],
  "SoftwareVersions": "syngo_MR_E11",
  "StationName": "AWP66112",
  "TotalReadoutTime": 0.0713994,
  "time": {
    "samples": {
      "AcquisitionNumber": [
        1,
        2,
        3,
        4,
        5,
        6,
        7,
        8,
        9,
        10,
        11,
        12,
        13,
        14,
        15,
        16,
        17,
        18,
        19,
        20,
        21,
        22,
        23,
        24,
        25,
        26,
        27,
        28,
        29,
        30,
        31,
        32,
        33,
        34,
        35,
        36,
        37,
        38,
        39,
        40,
        41,
        42,
        43,
        44,
        45,
        46,
        47,
        48,
        49,
        50,
        51,
        52,
        53,
        54,
        55,
        56,
        57,
        58,
        59,
        60,
        61,
        62,
        63,
        64,
        65,
        66,
        67,
        68,
        69,
        70,
        71,
        72,
        73,
        74,
        75,
        76,
        77,
        78,
        79,
        80,
        81,
        82,
        83,
        84,
        85,
        86,
        87,
        88,
        89,
        90,
        91,
        92,
        93,
        94,
        95,
        96,
        97,
        98,
        99,
        100,
        101,
        102,
        103,
        104,
        105,
        106,
        107
      ],
      "AcquisitionTime": [
        "122856.530000",
        "122859.130000",
        "122901.730000",
        "122904.330000",
        "122906.930000",
        "122909.530000",
        "122912.130000",
        "122914.730000",
        "122917.330000",
        "122919.930000",
        "122922.530000",
        "122925.130000",
        "122927.730000",
        "122930.330000",
        "122932.930000",
        "122935.530000",
        "122938.130000",
        "122940.730000",
        "122943.330000",
        "122945.930000",
        "122948.530000",
        "122951.130000",
        "122953.730000",
        "122956.330000",
        "122958.930000",
        "123001.530000",
        "123004.130000",
        "123006.730000",
        "123009.330000",
        "123011.930000",
        "123014.530000",
        "123017.130000",
        "123019.730000",
        "123022.330000",
        "123024.930000",
        "123027.530000",
        "123030.130000",
        "123032.730000",
        "123035.330000",
        "123037.930000",
        "123040.530000",
        "123043.130000",
        "123045.730000",
        "123048.330000",
        "123050.930000",
        "123053.530000",
        "123056.130000",
        "123058.730000",
        "123101.330000",
        "123103.930000",
        "123106.530000",
        "123109.130000",
        "123111.730000",
        "123114.330000",
        "123116.930000",
        "123119.530000",
        "123122.130000",
        "123124.730000",
        "123127.330000",
        "123129.930000",
        "123132.530000",
        "123135.130000",
        "123137.730000",
        "123140.330000",
        "123142.930000",
        "123145.530000",
        "123148.130000",
        "123150.730000",
        "123153.330000",
        "123155.930000",
        "123158.530000",
        "123201.130000",
        "123203.730000",
        "123206.330000",
        "123208.930000",
        "123211.530000",
        "123214.130000",
        "123216.730000",
        "123219.330000",
        "123221.930000",
        "123224.530000",
        "123227.130000",
        "123229.730000",
        "123232.330000",
        "123234.930000",
        "123237.530000",
        "123240.130000",
        "123242.730000",
        "123245.330000",
        "123247.930000",
        "123250.530000",
        "123253.130000",
        "123255.730000",
        "123258.330000",
        "123300.930000",
        "123303.530000",
        "123306.130000",
        "123308.730000",
        "123311.330000",
        "123313.930000",
        "123316.530000",
        "123319.130000",
        "123321.730000",
        "123324.330000",
        "123326.930000",
        "123329.530000",
        "123332.130000"
      ],
      "ContentTime": [
        "122958.693000",
        "122958.697000",
        "122958.700000",
        "122958.703000",
        "122958.706000",
        "122958.709000",
        "122958.713000",
        "122958.716000",
        "122958.719000",
        "122958.722000",
        "122958.726000",
        "122958.736000",
        "122958.747000",
        "122958.750000",
        "122958.759000",
        "122958.762000",
        "122958.765000",
        "122958.768000",
        "122958.778000",
        "122958.781000",
        "122958.785000",
        "122958.788000",
        "122958.791000",
        "122958.794000",
        "123058.688000",
        "123058.692000",
        "123058.695000",
        "123058.698000",
        "123058.710000",
        "123058.713000",
        "123058.717000",
        "123058.720000",
        "123058.723000",
        "123058.726000",
        "123058.729000",
        "123058.733000",
        "123058.736000",
        "123058.739000",
        "123058.742000",
        "123058.746000",
        "123058.749000",
        "123058.752000",
        "123058.755000",
        "123058.759000",
        "123058.762000",
        "123058.765000",
        "123058.768000",
        "123138.689000",
        "123138.692000",
        "123138.696000",
        "123138.699000",
        "123138.716000",
        "123138.719000",
        "123138.722000",
        "123138.726000",
        "123138.729000",
        "123138.732000",
        "123138.735000",
        "123138.738000",
        "123138.742000",
        "123138.745000",
        "123138.748000",
        "123238.688000",
        "123238.692000",
        "123238.702000",
        "123238.705000",
        "123238.708000",
        "123238.711000",
        "123238.714000",
        "123238.718000",
        "123238.721000",
        "123238.724000",
        "123238.727000",
        "123238.731000",
        "123238.734000",
        "123238.737000",
        "123238.740000",
        "123238.743000",
        "123238.747000",
        "123238.759000",
        "123238.762000",
        "123238.765000",
        "123238.768000",
        "123238.772000",
        "123238.775000",
        "123336.181000",
        "123336.201000",
        "123336.204000",
        "123336.207000",
        "123336.210000",
        "123336.221000",
        "123336.224000",
        "123336.227000",
        "123336.230000",
        "123336.234000",
        "123336.237000",
        "123336.240000",
        "123336.243000",
        "123336.246000",
        "123336.249000",
        "123336.253000",
        "123336.262000",
        "123336.265000",
        "123336.269000",
        "123336.272000",
        "123336.275000",
        "123336.278000"
      ],
      "InstanceCreationTime": [
        "122958.693000",
        "122958.697000",
        "122958.700000",
        "122958.703000",
        "122958.706000",
        "122958.709000",
        "122958.713000",
        "122958.716000",
        "122958.719000",
        "122958.722000",
        "122958.726000",
        "122958.736000",
        "122958.747000",
        "122958.750000",
        "122958.759000",
        "122958.762000",
        "122958.765000",
        "122958.768000",
        "122958.778000",
        "122958.781000",
        "122958.785000",
        "122958.788000",
        "122958.791000",
        "122958.794000",
        "123058.688000",
        "123058.692000",
        "123058.695000",
        "123058.698000",
        "123058.710000",
        "123058.713000",
        "123058.717000",
        "123058.720000",
        "123058.723000",
        "123058.726000",
        "123058.729000",
        "123058.733000",
        "123058.736000",
        "123058.739000",
        "123058.742000",
        "123058.746000",
        "123058.749000",
        "123058.752000",
        "123058.755000",
        "123058.759000",
        "123058.762000",
        "123058.765000",
        "123058.768000",
        "123138.689000",
        "123138.692000",
        "123138.696000",
        "123138.699000",
        "123138.716000",
        "123138.719000",
        "123138.722000",
        "123138.726000",
        "123138.729000",
        "123138.732000",
        "123138.735000",
        "123138.738000",
        "123138.742000",
        "123138.745000",
        "123138.748000",
        "123238.688000",
        "123238.692000",
        "123238.702000",
        "123238.705000",
        "123238.708000",
        "123238.711000",
        "123238.714000",
        "123238.718000",
        "123238.721000",
        "123238.724000",
        "123238.727000",
        "123238.731000",
        "123238.734000",
        "123238.737000",
        "123238.740000",
        "123238.743000",
        "123238.747000",
        "123238.759000",
        "123238.762000",
        "123238.765000",
        "123238.768000",
        "123238.772000",
        "123238.775000",
        "123336.181000",
        "123336.201000",
        "123336.204000",
        "123336.207000",
        "123336.210000",
        "123336.221000",
        "123336.224000",
        "123336.227000",
        "123336.230000",
        "123336.234000",
        "123336.237000",
        "123336.240000",
        "123336.243000",
        "123336.246000",
        "123336.249000",
        "123336.253000",
        "123336.262000",
        "123336.265000",
        "123336.269000",
        "123336.272000",
        "123336.275000",
        "123336.278000"
      ],
      "InstanceNumber": [
        1,
        2,
        3,
        4,
        5,
        6,
        7,
        8,
        9,
        10,
        11,
        12,
        13,
        14,
        15,
        16,
        17,
        18,
        19,
        20,
        21,
        22,
        23,
        24,
        25,
        26,
        27,
        28,
        29,
        30,
        31,
        32,
        33,
        34,
        35,
        36,
        37,
        38,
        39,
        40,
        41,
        42,
        43,
        44,
        45,
        46,
        47,
        48,
        49,
        50,
        51,
        52,
        53,
        54,
        55,
        56,
        57,
        58,
        59,
        60,
        61,
        62,
        63,
        64,
        65,
        66,
        67,
        68,
        69,
        70,
        71,
        72,
        73,
        74,
        75,
        76,
        77,
        78,
        79,
        80,
        81,
        82,
        83,
        84,
        85,
        86,
        87,
        88,
        89,
        90,
        91,
        92,
        93,
        94,
        95,
        96,
        97,
        98,
        99,
        100,
        101,
        102,
        103,
        104,
        105,
        106,
        107
      ],
      "LargestImagePixelValue": [
        2535,
        2514,
        470,
        468,
        499,
        494,
        446,
        529,
        402,
        461,
        458,
        2118,
        481,
        528,
        543,
        476,
        447,
        463,
        524,
        426,
        474,
        510,
        1880,
        485,
        469,
        455,
        462,
        471,
        542,
        487,
        480,
        472,
        452,
        2013,
        485,
        496,
        469,
        481,
        492,
        496,
        501,
        458,
        460,
        452,
        2388,
        452,
        503,
        449,
        511,
        456,
        461,
        501,
        484,
        481,
        467,
        2308,
        442,
        480,
        456,
        459,
        445,
        396,
        477,
        464,
        479,
        470,
        2476,
        523,
        459,
        434,
        511,
        509,
        466,
        479,
        453,
        518,
        472,
        2168,
        519,
        485,
        452,
        476,
        518,
        551,
        443,
        444,
        453,
        2086,
        455,
        483,
        395,
        467,
        503,
        492,
        453,
        494,
        454,
        1986,
        478,
        480,
        497,
        512,
        472,
        455,
        477,
        500,
        466
      ],
      "SequenceName": [
        "*ep_b0",
        "*ep_b0",
        "*ep_b1000#2",
        "*ep_b1000#3",
        "*ep_b1000#4",
        "*ep_b1000#5",
        "*ep_b1000#6",
        "*ep_b1000#7",
        "*ep_b1000#8",
        "*ep_b1000#9",
        "*ep_b1000#10",
        "*ep_b0",
        "*ep_b1000#12",
        "*ep_b1000#13",
        "*ep_b1000#14",
        "*ep_b1000#15",
        "*ep_b1000#16",
        "*ep_b1000#17",
        "*ep_b1000#18",
        "*ep_b1000#19",
        "*ep_b1000#20",
        "*ep_b1000#21",
        "*ep_b0",
        "*ep_b1000#23",
        "*ep_b1000#24",
        "*ep_b1000#25",
        "*ep_b1000#26",
        "*ep_b1000#27",
        "*ep_b1000#28",
        "*ep_b1000#29",
        "*ep_b1000#30",
        "*ep_b1000#31",
        "*ep_b1000#32",
        "*ep_b0",
        "*ep_b1000#34",
        "*ep_b1000#35",
        "*ep_b1000#36",
        "*ep_b1000#37",
        "*ep_b1000#38",
        "*ep_b1000#39",
        "*ep_b1000#40",
        "*ep_b1000#41",
        "*ep_b1000#42",
        "*ep_b1000#43",
        "*ep_b0",
        "*ep_b1000#45",
        "*ep_b1000#46",
        "*ep_b1000#47",
        "*ep_b1000#48",
        "*ep_b1000#49",
        "*ep_b1000#50",
        "*ep_b1000#51",
        "*ep_b1000#52",
        "*ep_b1000#53",
        "*ep_b1000#54",
        "*ep_b0",
        "*ep_b1000#56",
        "*ep_b1000#57",
        "*ep_b1000#58",
        "*ep_b1000#59",
        "*ep_b1000#60",
        "*ep_b1000#61",
        "*ep_b1000#62",
        "*ep_b1000#63",
        "*ep_b1000#64",
        "*ep_b1000#65",
        "*ep_b0",
        "*ep_b1000#67",
        "*ep_b1000#68",
        "*ep_b1000#69",
        "*ep_b1000#70",
        "*ep_b1000#71",
        "*ep_b1000#72",
        "*ep_b1000#73",
        "*ep_b1000#74",
        "*ep_b1000#75",
        "*ep_b1000#76",
        "*ep_b0",
        "*ep_b1000#78",
        "*ep_b1000#79",
        "*ep_b1000#80",
        "*ep_b1000#81",
        "*ep_b1000#82",
        "*ep_b1000#83",
        "*ep_b1000#84",
        "*ep_b1000#85",
        "*ep_b1000#86",
        "*ep_b0",
        "*ep_b1000#88",
        "*ep_b1000#89",
        "*ep_b1000#90",
        "*ep_b1000#91",
        "*ep_b1000#92",
        "*ep_b1000#93",
        "*ep_b1000#94",
        "*ep_b1000#95",
        "*ep_b1000#96",
        "*ep_b0",
        "*ep_b1000#98",
        "*ep_b1000#99",
        "*ep_b1000#100",
        "*ep_b1000#101",
        "*ep_b1000#102",
        "*ep_b1000#103",
        "*ep_b1000#104",
        "*ep_b1000#105",
        "*ep_b1000#106"
      ],
      "WindowCenter": [
        246,
        245,
        102,
        108,
        105,
        107,
        105,
        104,
        106,
        101,
        107,
        233,
        106,
        104,
        103,
        106,
        106,
        102,
        106,
        106,
        104,
        106,
        230,
        105,
        106,
        105,
        103,
        106,
        104,
        106,
        103,
        104,
        107,
        229,
        105,
        106,
        101,
        108,
        103,
        106,
        106,
        105,
        104,
        107,
        237,
        103,
        104,
        107,
        104,
        106,
        104,
        105,
        104,
        105,
        106,
        236,
        105,
        103,
        105,
        102,
        107,
        105,
        105,
        103,
        104,
        104,
        241,
        104,
        107,
        104,
        104,
        105,
        103,
        107,
        103,
        105,
        104,
        234,
        107,
        105,
        106,
        105,
        105,
        105,
        105,
        105,
        104,
        232,
        104,
        105,
        106,
        105,
        104,
        103,
        106,
        106,
        104,
        228,
        105,
        105,
        103,
        105,
        105,
        105,
        104,
        107,
        102
      ],
      "WindowWidth": [
        573,
        570,
        258,
        271,
        266,
        269,
        265,
        264,
        267,
        257,
        269,
        551,
        267,
        263,
        261,
        267,
        268,
        258,
        267,
        267,
        263,
        267,
        546,
        265,
        267,
        265,
        262,
        268,
        263,
        268,
        260,
        263,
        269,
        545,
        265,
        267,
        257,
        271,
        261,
        267,
        268,
        265,
        263,
        268,
        557,
        261,
        262,
        270,
        264,
        267,
        263,
        265,
        263,
        265,
        267,
        555,
        265,
        261,
        265,
        259,
        269,
        265,
        265,
        261,
        262,
        263,
        564,
        263,
        269,
        263,
        263,
        265,
        260,
        268,
        261,
        265,
        263,
        554,
        269,
        265,
        267,
        265,
        264,
        265,
        265,
        265,
        263,
        548,
        264,
        266,
        267,
        265,
        263,
        260,
        267,
        267,
        262,
        544,
        266,
        265,
        261,
        265,
        266,
        265,
        263,
        268,
        259
      ]
    },
    "slices": {}
  }
}
