{
  "AcquisitionMatrixPE": 120,
  "AcquisitionNumber": 1,
  "AcquisitionTime": "20:00:45.517500",
  "BandwidthPerPixelPhaseEncode": 13.889,
  "BaseResolution": 120,
  "BodyPartExamined": "BRAIN",
  "ConsistencyInfo": "N4_VE11C_LATEST_20160120",
  "ConversionSoftware": "dcm2niix",
  "ConversionSoftwareVersion": "v1.0.20170923 (OpenJPEG build) GCC6.3.0",
  "DerivedVendorReportedEchoSpacing": 0.000599995,
  "DeviceSerialNumber": "66112",
  "DwellTime": 2e-06,
  "EchoTime": 0.103,
  "EchoTrainLength": 120,
  "EffectiveEchoSpacing": 0.000599995,
  "FlipAngle": 90,
  "ImageType": [
    "ORIGINAL",
    "PRIMARY",
    "DIFFUSION",
    "NONE",
    "ND",
    "NORM",
    "MOSAIC"
  ],
  "InstitutionAddress": "Maynard_3_Hanover_NH_US_03755",
  "InstitutionName": "Dartmouth_College_-_PBS",
  "MagneticFieldStrength": 3,
  "Manufacturer": "Siemens",
  "ManufacturersModelName": "Prisma",
  "Modality": "MR",
  "MultibandAccelerationFactor": 4,
  "PercentPhaseFOV": 100,
  "PhaseEncodingDirection": "j-",
  "PhaseEncodingSteps": 120,
  "PhaseResolution": 1,
  "ProcedureStepDescription": "Gobbini_Matteo_1038_hyperface",
  "ProtocolName": "dwi_acq-2.0mmXhardi96Xsms4X11b0",
  "PulseSequenceDetails": "%SiemensSeq%_ep2d_diff",
  "ReceiveCoilActiveElements": "HEA;HEP",
  "ReceiveCoilName": "Head_32",
  "ReconMatrixPE": 120,
  "RepetitionTime": 2.6,
  "ScanOptions": "FS",
  "ScanningSequence": "EP",
  "SequenceName": "_ep_b0",
  "SequenceVariant": "SK_SP",
  "SeriesDescription": "dwi_acq-2.0mmXhardi96Xsms4X11b0",
  "SliceTiming": [
    1.935,
    0,
    1.29,
    0.1625,
    1.4525,
    0.3225,
    1.6125,
    0.485,
    1.775,
    0.8075,
    2.0975,
    0.9675,
    2.2575,
    1.13,
    2.42,
    0.645,
    1.935,
    0,
    1.29,
    0.1625,
    1.4525,
    0.3225,
    1.6125,
    0.485,
    1.775,
    0.8075,
    2.0975,
    0.9675,
    2.2575,
    1.13,
    2.42,
    0.645,
    1.935,
    0,
    1.29,
    0.1625,
    1.4525,
    0.3225,
    1.6125,
    0.485,
    1.775,
    0.8075,
    2.0975,
    0.9675,
    2.2575,
    1.13,
    2.42,
    0.645,
    1.935,
    0,
    1.29,
    0.1625,
    1.4525,
    0.3225,
    1.6125,
    0.485,
    1.775,
    0.8075,
    2.0975,
    0.9675,
    2.2575,
    1.13,
    2.42,
    0.645
  ],
  "SoftwareVersions": "syngo_MR_E11",
  "StationName": "AWP66112",
  "TotalReadoutTime": 0.0713994,
  "dcmmeta_affine": [
    [
      -1.9998220205307007,
      -0.02652815729379654,
      -0.0028817958664149046,
      122.71231842041016
    ],
    [
      -0.026517612859606743,
      1.9998111724853516,
      -0.007217747159302235,
      -98.43045043945312
    ],
    [
      -0.002977260621264577,
      0.007178896106779575,
      1.999984860420227,
      -77.85749816894531
    ],
    [
      0.0,
      0.0,
      0.0,
      1.0
    ]
  ],
  "dcmmeta_reorient_transform": [
    [
      0.0,
      -1.0,
      0.0,
      119.0
    ],
    [
      1.0,
      0.0,
      0.0,
      0.0
    ],
    [
      0.0,
      0.0,
      1.0,
      0.0
    ],
    [
      0.0,
      0.0,
      0.0,
      1.0
    ]
  ],
  "dcmmeta_shape": [
    120,
    120,
    64,
    107
  ],
  "dcmmeta_slice_dim": 2,
  "dcmmeta_version": 0.6,
  "global": {
    "const": {
      "AccessionNumber": "A001155",
      "AcquisitionMatrix": [
        120,
        0,
        0,
        120
      ],
      "AngioFlag": "N",
      "BitsAllocated": 16,
      "BitsStored": 12,
      "BodyPartExamined": "BRAIN",
      "Columns": 960,
      "EchoNumbers": 1,
      "EchoTime": 103.0,
      "EchoTrainLength": 120,
      "FlipAngle": 90.0,
      "HighBit": 11,
      "ImageOrientationPatient": [
        0.99991099005893,
        0.01325880609414,
        -0.0014886303533,
        -0.0132640782678,
        0.99990558558854,
        -0.0035894479457
      ],
      "ImagePositionPatient": [
        -948.33887688275,
        -990.60516983617,
        -72.73762417861
      ],
      "ImageType": [
        "ORIGINAL",
        "PRIMARY",
        "DIFFUSION",
        "NONE",
        "ND",
        "NORM",
        "MOSAIC"
      ],
      "ImagedNucleus": "1H",
      "ImagingFrequency": 123.252322,
      "InPlanePhaseEncodingDirection": "COL",
      "MRAcquisitionType": "2D",
      "MagneticFieldStrength": 3.0,
      "Manufacturer": "SIEMENS",
      "ManufacturerModelName": "Prisma",
      "Modality": "MR",
      "NumberOfAverages": 1.0,
      "NumberOfPhaseEncodingSteps": 120,
      "PercentPhaseFieldOfView": 100.0,
      "PercentSampling": 100.0,
      "PerformedProcedureStepStartTime": "185608.983000",
      "PhotometricInterpretation": "MONOCHROME2",
      "PixelBandwidth": 2085.0,
      "PixelRepresentation": 0,
      "PixelSpacing": [
        2.0,
        2.0
      ],
      "PositionReferenceIndicator": "",
      "ProtocolName": "dwi_acq-2.0mmXhardi96Xsms4X11b0",
      "RepetitionTime": 2600.0,
      "Rows": 960,
      "SAR": 0.28775658113407,
      "SamplesPerPixel": 1,
      "ScanOptions": "FS",
      "ScanningSequence": "EP",
      "SequenceVariant": [
        "SK",
        "SP"
      ],
      "SeriesDescription": "dwi_acq-2.0mmXhardi96Xsms4X11b0",
      "SeriesNumber": 65,
      "SeriesTime": "200137.912000",
      "SliceLocation": -77.678503605752,
      "SliceThickness": 2.0,
      "SmallestImagePixelValue": 0,
      "SoftwareVersions": "syngo MR E11",
      "SpacingBetweenSlices": 1.9999999625012,
      "SpecificCharacterSet": "ISO_IR 100",
      "StudyID": "2",
      "StudyTime": "185608.929000",
      "TransmitCoilName": "Body",
      "VariableFlipAngleFlag": "N",
      "WindowCenterWidthExplanation": "Algo1",
      "dBdt": 0.0
    },
    "slices": {}
  },
  "time": {
    "samples": {
      "AcquisitionNumber": [
        1,
        2,
        3,
        4,
        5,
        6,
        7,
        8,
        9,
        10,
        11,
        12,
        13,
        14,
        15,
        16,
        17,
        18,
        19,
        20,
        21,
        22,
        23,
        24,
        25,
        26,
        27,
        28,
        29,
        30,
        31,
        32,
        33,
        34,
        35,
        36,
        37,
        38,
        39,
        40,
        41,
        42,
        43,
        44,
        45,
        46,
        47,
        48,
        49,
        50,
        51,
        52,
        53,
        54,
        55,
        56,
        57,
        58,
        59,
        60,
        61,
        62,
        63,
        64,
        65,
        66,
        67,
        68,
        69,
        70,
        71,
        72,
        73,
        74,
        75,
        76,
        77,
        78,
        79,
        80,
        81,
        82,
        83,
        84,
        85,
        86,
        87,
        88,
        89,
        90,
        91,
        92,
        93,
        94,
        95,
        96,
        97,
        98,
        99,
        100,
        101,
        102,
        103,
        104,
        105,
        106,
        107
      ],
      "AcquisitionTime": [
        "200045.517500",
        "200048.117500",
        "200050.717500",
        "200053.317500",
        "200055.917500",
        "200058.517500",
        "200101.117500",
        "200103.717500",
        "200106.317500",
        "200108.917500",
        "200111.517500",
        "200114.117500",
        "200116.717500",
        "200119.317500",
        "200121.917500",
        "200124.517500",
        "200127.117500",
        "200129.717500",
        "200132.317500",
        "200134.917500",
        "200137.517500",
        "200140.117500",
        "200142.717500",
        "200145.317500",
        "200147.917500",
        "200150.517500",
        "200153.117500",
        "200155.717500",
        "200158.317500",
        "200200.917500",
        "200203.517500",
        "200206.117500",
        "200208.717500",
        "200211.317500",
        "200213.917500",
        "200216.517500",
        "200219.117500",
        "200221.717500",
        "200224.317500",
        "200226.917500",
        "200229.517500",
        "200232.117500",
        "200234.717500",
        "200237.317500",
        "200239.917500",
        "200242.517500",
        "200245.117500",
        "200247.717500",
        "200250.317500",
        "200252.917500",
        "200255.517500",
        "200258.117500",
        "200300.717500",
        "200303.317500",
        "200305.917500",
        "200308.517500",
        "200311.117500",
        "200313.717500",
        "200316.317500",
        "200318.917500",
        "200321.517500",
        "200324.117500",
        "200326.717500",
        "200329.317500",
        "200331.917500",
        "200334.517500",
        "200337.117500",
        "200339.717500",
        "200342.317500",
        "200344.917500",
        "200347.517500",
        "200350.117500",
        "200352.717500",
        "200355.317500",
        "200357.917500",
        "200400.517500",
        "200403.117500",
        "200405.717500",
        "200408.317500",
        "200410.917500",
        "200413.517500",
        "200416.117500",
        "200418.717500",
        "200421.317500",
        "200423.917500",
        "200426.517500",
        "200429.117500",
        "200431.717500",
        "200434.317500",
        "200436.917500",
        "200439.517500",
        "200442.117500",
        "200444.717500",
        "200447.317500",
        "200449.917500",
        "200452.517500",
        "200455.117500",
        "200457.717500",
        "200500.317500",
        "200502.917500",
        "200505.517500",
        "200508.117500",
        "200510.717500",
        "200513.317500",
        "200515.917500",
        "200518.517500",
        "200521.117500"
      ],
      "ContentTime": [
        "200137.916000",
        "200137.920000",
        "200137.931000",
        "200137.934000",
        "200137.938000",
        "200137.947000",
        "200137.950000",
        "200137.953000",
        "200137.956000",
        "200137.959000",
        "200137.963000",
        "200137.966000",
        "200137.969000",
        "200137.972000",
        "200137.975000",
        "200137.978000",
        "200137.982000",
        "200137.985000",
        "200137.988000",
        "200137.991000",
        "200237.911000",
        "200237.915000",
        "200237.918000",
        "200237.931000",
        "200237.934000",
        "200237.937000",
        "200237.941000",
        "200237.944000",
        "200237.947000",
        "200237.950000",
        "200237.953000",
        "200237.957000",
        "200237.960000",
        "200237.963000",
        "200237.966000",
        "200237.969000",
        "200237.972000",
        "200237.975000",
        "200237.979000",
        "200237.990000",
        "200237.993000",
        "200237.996000",
        "200238.000000",
        "200337.911000",
        "200337.915000",
        "200337.918000",
        "200337.921000",
        "200337.924000",
        "200337.927000",
        "200337.930000",
        "200337.934000",
        "200337.937000",
        "200337.940000",
        "200337.943000",
        "200337.947000",
        "200337.950000",
        "200337.953000",
        "200337.956000",
        "200337.959000",
        "200337.962000",
        "200337.965000",
        "200337.969000",
        "200337.972000",
        "200337.975000",
        "200337.978000",
        "200337.981000",
        "200437.912000",
        "200437.916000",
        "200437.919000",
        "200437.922000",
        "200437.925000",
        "200437.928000",
        "200437.932000",
        "200437.935000",
        "200437.938000",
        "200437.941000",
        "200437.944000",
        "200437.947000",
        "200437.951000",
        "200437.954000",
        "200437.957000",
        "200437.960000",
        "200437.963000",
        "200437.967000",
        "200437.970000",
        "200437.973000",
        "200437.976000",
        "200437.979000",
        "200437.982000",
        "200525.203000",
        "200525.207000",
        "200525.210000",
        "200525.214000",
        "200525.217000",
        "200525.220000",
        "200525.223000",
        "200525.227000",
        "200525.230000",
        "200525.233000",
        "200525.236000",
        "200525.240000",
        "200525.243000",
        "200525.246000",
        "200525.250000",
        "200525.253000",
        "200525.256000",
        "200525.260000"
      ],
      "InstanceCreationTime": [
        "200137.916000",
        "200137.920000",
        "200137.931000",
        "200137.934000",
        "200137.938000",
        "200137.947000",
        "200137.950000",
        "200137.953000",
        "200137.956000",
        "200137.959000",
        "200137.963000",
        "200137.966000",
        "200137.969000",
        "200137.972000",
        "200137.975000",
        "200137.978000",
        "200137.982000",
        "200137.985000",
        "200137.988000",
        "200137.991000",
        "200237.911000",
        "200237.915000",
        "200237.918000",
        "200237.931000",
        "200237.934000",
        "200237.937000",
        "200237.941000",
        "200237.944000",
        "200237.947000",
        "200237.950000",
        "200237.953000",
        "200237.957000",
        "200237.960000",
        "200237.963000",
        "200237.966000",
        "200237.969000",
        "200237.972000",
        "200237.975000",
        "200237.979000",
        "200237.990000",
        "200237.993000",
        "200237.996000",
        "200238.000000",
        "200337.911000",
        "200337.915000",
        "200337.918000",
        "200337.921000",
        "200337.924000",
        "200337.927000",
        "200337.930000",
        "200337.934000",
        "200337.937000",
        "200337.940000",
        "200337.943000",
        "200337.947000",
        "200337.950000",
        "200337.953000",
        "200337.956000",
        "200337.959000",
        "200337.962000",
        "200337.965000",
        "200337.969000",
        "200337.972000",
        "200337.975000",
        "200337.978000",
        "200337.981000",
        "200437.912000",
        "200437.916000",
        "200437.919000",
        "200437.922000",
        "200437.925000",
        "200437.928000",
        "200437.932000",
        "200437.935000",
        "200437.938000",
        "200437.941000",
        "200437.944000",
        "200437.947000",
        "200437.951000",
        "200437.954000",
        "200437.957000",
        "200437.960000",
        "200437.963000",
        "200437.967000",
        "200437.970000",
        "200437.973000",
        "200437.976000",
        "200437.979000",
        "200437.982000",
        "200525.203000",
        "200525.207000",
        "200525.210000",
        "200525.214000",
        "200525.217000",
        "200525.220000",
        "200525.223000",
        "200525.227000",
        "200525.230000",
        "200525.233000",
        "200525.236000",
        "200525.240000",
        "200525.243000",
        "200525.246000",
        "200525.250000",
        "200525.253000",
        "200525.256000",
        "200525.260000"
      ],
      "InstanceNumber": [
        1,
        2,
        3,
        4,
        5,
        6,
        7,
        8,
        9,
        10,
        11,
        12,
        13,
        14,
        15,
        16,
        17,
        18,
        19,
        20,
        21,
        22,
        23,
        24,
        25,
        26,
        27,
        28,
        29,
        30,
        31,
        32,
        33,
        34,
        35,
        36,
        37,
        38,
        39,
        40,
        41,
        42,
        43,
        44,
        45,
        46,
        47,
        48,
        49,
        50,
        51,
        52,
        53,
        54,
        55,
        56,
        57,
        58,
        59,
        60,
        61,
        62,
        63,
        64,
        65,
        66,
        67,
        68,
        69,
        70,
        71,
        72,
        73,
        74,
        75,
        76,
        77,
        78,
        79,
        80,
        81,
        82,
        83,
        84,
        85,
        86,
        87,
        88,
        89,
        90,
        91,
        92,
        93,
        94,
        95,
        96,
        97,
        98,
        99,
        100,
        101,
        102,
        103,
        104,
        105,
        106,
        107
      ],
      "LargestImagePixelValue": [
        2498,
        2387,
        502,
        545,
        611,
        620,
        610,
        657,
        582,
        514,
        635,
        2446,
        613,
        644,
        546,
        625,
        599,
        513,
        599,
        617,
        537,
        618,
        2255,
        617,
        616,
        634,
        621,
        598,
        618,
        628,
        590,
        549,
        585,
        2276,
        512,
        463,
        498,
        598,
        530,
        623,
        582,
        612,
        584,
        631,
        2572,
        574,
        574,
        591,
        584,
        582,
        581,
        627,
        531,
        596,
        620,
        2439,
        591,
        587,
        584,
        550,
        606,
        589,
        623,
        543,
        585,
        621,
        2497,
        557,
        566,
        568,
        669,
        648,
        555,
        584,
        567,
        651,
        559,
        2329,
        628,
        618,
        555,
        572,
        550,
        555,
        531,
        515,
        542,
        2204,
        560,
        580,
        515,
        608,
        511,
        569,
        638,
        568,
        478,
        2531,
        566,
        581,
        602,
        538,
        654,
        702,
        471,
        526,
        504
      ],
      "SequenceName": [
        "*ep_b0",
        "*ep_b0",
        "*ep_b1000#2",
        "*ep_b1000#3",
        "*ep_b1000#4",
        "*ep_b1000#5",
        "*ep_b1000#6",
        "*ep_b1000#7",
        "*ep_b1000#8",
        "*ep_b1000#9",
        "*ep_b1000#10",
        "*ep_b0",
        "*ep_b1000#12",
        "*ep_b1000#13",
        "*ep_b1000#14",
        "*ep_b1000#15",
        "*ep_b1000#16",
        "*ep_b1000#17",
        "*ep_b1000#18",
        "*ep_b1000#19",
        "*ep_b1000#20",
        "*ep_b1000#21",
        "*ep_b0",
        "*ep_b1000#23",
        "*ep_b1000#24",
        "*ep_b1000#25",
        "*ep_b1000#26",
        "*ep_b1000#27",
        "*ep_b1000#28",
        "*ep_b1000#29",
        "*ep_b1000#30",
        "*ep_b1000#31",
        "*ep_b1000#32",
        "*ep_b0",
        "*ep_b1000#34",
        "*ep_b1000#35",
        "*ep_b1000#36",
        "*ep_b1000#37",
        "*ep_b1000#38",
        "*ep_b1000#39",
        "*ep_b1000#40",
        "*ep_b1000#41",
        "*ep_b1000#42",
        "*ep_b1000#43",
        "*ep_b0",
        "*ep_b1000#45",
        "*ep_b1000#46",
        "*ep_b1000#47",
        "*ep_b1000#48",
        "*ep_b1000#49",
        "*ep_b1000#50",
        "*ep_b1000#51",
        "*ep_b1000#52",
        "*ep_b1000#53",
        "*ep_b1000#54",
        "*ep_b0",
        "*ep_b1000#56",
        "*ep_b1000#57",
        "*ep_b1000#58",
        "*ep_b1000#59",
        "*ep_b1000#60",
        "*ep_b1000#61",
        "*ep_b1000#62",
        "*ep_b1000#63",
        "*ep_b1000#64",
        "*ep_b1000#65",
        "*ep_b0",
        "*ep_b1000#67",
        "*ep_b1000#68",
        "*ep_b1000#69",
        "*ep_b1000#70",
        "*ep_b1000#71",
        "*ep_b1000#72",
        "*ep_b1000#73",
        "*ep_b1000#74",
        "*ep_b1000#75",
        "*ep_b1000#76",
        "*ep_b0",
        "*ep_b1000#78",
        "*ep_b1000#79",
        "*ep_b1000#80",
        "*ep_b1000#81",
        "*ep_b1000#82",
        "*ep_b1000#83",
        "*ep_b1000#84",
        "*ep_b1000#85",
        "*ep_b1000#86",
        "*ep_b0",
        "*ep_b1000#88",
        "*ep_b1000#89",
        "*ep_b1000#90",
        "*ep_b1000#91",
        "*ep_b1000#92",
        "*ep_b1000#93",
        "*ep_b1000#94",
        "*ep_b1000#95",
        "*ep_b1000#96",
        "*ep_b0",
        "*ep_b1000#98",
        "*ep_b1000#99",
        "*ep_b1000#100",
        "*ep_b1000#101",
        "*ep_b1000#102",
        "*ep_b1000#103",
        "*ep_b1000#104",
        "*ep_b1000#105",
        "*ep_b1000#106"
      ],
      "WindowCenter": [
        266.0,
        260.0,
        100.0,
        104.0,
        102.0,
        103.0,
        102.0,
        102.0,
        103.0,
        100.0,
        104.0,
        260.0,
        103.0,
        102.0,
        101.0,
        103.0,
        103.0,
        100.0,
        103.0,
        104.0,
        101.0,
        103.0,
        253.0,
        103.0,
        104.0,
        102.0,
        103.0,
        103.0,
        102.0,
        103.0,
        100.0,
        101.0,
        104.0,
        252.0,
        102.0,
        102.0,
        99.0,
        104.0,
        101.0,
        103.0,
        103.0,
        103.0,
        101.0,
        104.0,
        266.0,
        102.0,
        101.0,
        104.0,
        102.0,
        103.0,
        102.0,
        102.0,
        101.0,
        102.0,
        103.0,
        260.0,
        103.0,
        100.0,
        103.0,
        101.0,
        104.0,
        103.0,
        102.0,
        101.0,
        101.0,
        102.0,
        262.0,
        102.0,
        104.0,
        102.0,
        102.0,
        102.0,
        101.0,
        103.0,
        101.0,
        103.0,
        102.0,
        255.0,
        103.0,
        102.0,
        103.0,
        102.0,
        103.0,
        102.0,
        102.0,
        102.0,
        101.0,
        250.0,
        102.0,
        103.0,
        103.0,
        102.0,
        101.0,
        100.0,
        104.0,
        102.0,
        101.0,
        262.0,
        102.0,
        102.0,
        101.0,
        102.0,
        103.0,
        104.0,
        101.0,
        102.0,
        101.0
      ],
      "WindowWidth": [
        609.0,
        601.0,
        254.0,
        264.0,
        259.0,
        262.0,
        259.0,
        259.0,
        262.0,
        253.0,
        263.0,
        601.0,
        262.0,
        258.0,
        256.0,
        262.0,
        262.0,
        254.0,
        262.0,
        263.0,
        256.0,
        262.0,
        587.0,
        260.0,
        264.0,
        259.0,
        260.0,
        262.0,
        258.0,
        262.0,
        255.0,
        258.0,
        264.0,
        584.0,
        260.0,
        258.0,
        253.0,
        263.0,
        256.0,
        262.0,
        261.0,
        261.0,
        257.0,
        263.0,
        608.0,
        258.0,
        258.0,
        264.0,
        259.0,
        260.0,
        258.0,
        260.0,
        258.0,
        260.0,
        261.0,
        600.0,
        261.0,
        255.0,
        260.0,
        256.0,
        264.0,
        260.0,
        260.0,
        256.0,
        258.0,
        259.0,
        603.0,
        258.0,
        264.0,
        260.0,
        258.0,
        259.0,
        257.0,
        261.0,
        257.0,
        262.0,
        258.0,
        594.0,
        262.0,
        260.0,
        260.0,
        258.0,
        261.0,
        258.0,
        260.0,
        259.0,
        257.0,
        582.0,
        258.0,
        262.0,
        261.0,
        260.0,
        258.0,
        255.0,
        263.0,
        260.0,
        258.0,
        598.0,
        259.0,
        259.0,
        257.0,
        259.0,
        261.0,
        263.0,
        256.0,
        260.0,
        256.0
      ]
    },
    "slices": {}
  },
  "CoilCombinationMethod": "Adaptive Combine",
  "NonlinearGradientCorrection": false,
  "MRAcquisitionType": "2D",
  "InstitutionalDepartmentName": "Department",
  "PulseSequenceType": "Spin Echo EPI",
  "B0FieldSource": "pepolar_ses-2"
}
