{
  "AcquisitionMatrixPE": 96,
  "AcquisitionNumber": 1,
  "BandwidthPerPixelPhaseEncode": 18.939,
  "BaseResolution": 96,
  "BodyPartExamined": "BRAIN",
  "ConsistencyInfo": "N4_VE11C_LATEST_20160120",
  "ConversionSoftware": "dcm2niix",
  "ConversionSoftwareVersion": "v1.0.20171215 (OpenJPEG build) GCC6.3.0",
  "DerivedVendorReportedEchoSpacing": 0.000550011,
  "DeviceSerialNumber": "66112",
  "DwellTime": 2.2e-06,
  "EchoTime": 0.033,
  "EchoTrainLength": 96,
  "EffectiveEchoSpacing": 0.000550011,
  "FlipAngle": 59,
  "ImageOrientationPatientDICOM": [
    0.996673,
    -0.00532555,
    0.0813251,
    0.0071322,
    0.999734,
    -0.0219408
  ],
  "ImageType": [
    "ORIGINAL",
    "PRIMARY",
    "FMRI",
    "NONE",
    "ND",
    "NORM",
    "MOSAIC"
  ],
  "InPlanePhaseEncodingDirectionDICOM": "COL",
  "InstitutionAddress": "Maynard_3_Hanover_NH_US_03755",
  "InstitutionName": "Dartmouth_College_-_PBS",
  "InstitutionalDepartmentName": "Department",
  "MRAcquisitionType": "2D",
  "MagneticFieldStrength": 3,
  "Manufacturer": "Siemens",
  "ManufacturersModelName": "Prisma",
  "Modality": "MR",
  "MultibandAccelerationFactor": 4,
  "PartialFourier": 1,
  "PatientPosition": "HFS",
  "PercentPhaseFOV": 100,
  "PhaseEncodingDirection": "j-",
  "PhaseEncodingSteps": 96,
  "PhaseResolution": 1,
  "PixelBandwidth": 2365,
  "ProcedureStepDescription": "Gobbini_Matteo_1038_hyperface",
  "ProtocolName": "func_run-04_task-visualmemory",
  "PulseSequenceDetails": "%SiemensSeq%_ep2d_bold",
  "ReceiveCoilActiveElements": "HEA;HEP",
  "ReceiveCoilName": "Head_32",
  "ReconMatrixPE": 96,
  "RepetitionTime": 1,
  "SAR": 0.0482292,
  "ScanOptions": "FS",
  "ScanningSequence": "EP",
  "SequenceName": "_epfid2d1_96",
  "SequenceVariant": "SK",
  "SeriesDescription": "func_run-04_task-visualmemory",
  "SeriesNumber": 28,
  "ShimSetting": [
    4161,
    -7690,
    -7337,
    736,
    -41,
    -79,
    -16,
    40
  ],
  "SliceThickness": 2.5,
  "SliceTiming": [
    0.735,
    0,
    0.49,
    0.08,
    0.57,
    0.1625,
    0.6525,
    0.325,
    0.815,
    0.4075,
    0.8975,
    0.245,
    0.735,
    0,
    0.49,
    0.08,
    0.57,
    0.1625,
    0.6525,
    0.325,
    0.815,
    0.4075,
    0.8975,
    0.245,
    0.735,
    0,
    0.49,
    0.08,
    0.57,
    0.1625,
    0.6525,
    0.325,
    0.815,
    0.4075,
    0.8975,
    0.245,
    0.735,
    0,
    0.49,
    0.08,
    0.57,
    0.1625,
    0.6525,
    0.325,
    0.815,
    0.4075,
    0.8975,
    0.245
  ],
  "SoftwareVersions": "syngo_MR_E11",
  "SpacingBetweenSlices": 2.5,
  "StationName": "AWP66112",
  "TotalReadoutTime": 0.0522511,
  "TxRefAmp": 229.511,
  "time": {
    "samples": {
      "AcquisitionNumber": [
        1,
        2,
        3,
        4,
        5,
        6,
        7,
        8,
        9,
        10,
        11,
        12,
        13,
        14,
        15,
        16,
        17,
        18,
        19,
        20,
        21,
        22,
        23,
        24,
        25,
        26,
        27,
        28,
        29,
        30,
        31,
        32,
        33,
        34,
        35,
        36,
        37,
        38,
        39,
        40,
        41,
        42,
        43,
        44,
        45,
        46,
        47,
        48,
        49,
        50,
        51,
        52,
        53,
        54,
        55,
        56,
        57,
        58,
        59,
        60,
        61,
        62,
        63,
        64,
        65,
        66,
        67,
        68,
        69,
        70,
        71,
        72,
        73,
        74,
        75,
        76,
        77,
        78,
        79,
        80,
        81,
        82,
        83,
        84,
        85,
        86,
        87,
        88,
        89,
        90,
        91,
        92,
        93,
        94,
        95,
        96,
        97,
        98,
        99,
        100,
        101,
        102,
        103,
        104,
        105,
        106,
        107,
        108,
        109,
        110,
        111,
        112,
        113,
        114,
        115,
        116,
        117,
        118,
        119,
        120,
        121,
        122,
        123,
        124,
        125,
        126,
        127,
        128,
        129,
        130,
        131,
        132,
        133,
        134,
        135,
        136,
        137,
        138,
        139,
        140,
        141,
        142,
        143,
        144,
        145,
        146,
        147,
        148,
        149,
        150,
        151,
        152,
        153,
        154,
        155,
        156,
        157,
        158,
        159,
        160,
        161,
        162,
        163,
        164,
        165,
        166,
        167,
        168,
        169,
        170,
        171,
        172,
        173,
        174,
        175,
        176,
        177,
        178,
        179,
        180,
        181,
        182,
        183,
        184,
        185,
        186,
        187,
        188,
        189,
        190,
        191,
        192,
        193,
        194,
        195,
        196,
        197,
        198,
        199,
        200,
        201,
        202,
        203,
        204,
        205,
        206,
        207,
        208,
        209,
        210,
        211,
        212,
        213,
        214,
        215,
        216,
        217,
        218,
        219,
        220,
        221,
        222,
        223,
        224,
        225,
        226,
        227,
        228,
        229,
        230,
        231,
        232,
        233,
        234,
        235,
        236,
        237,
        238,
        239,
        240,
        241,
        242,
        243,
        244,
        245,
        246,
        247,
        248,
        249,
        250,
        251,
        252,
        253,
        254,
        255,
        256,
        257,
        258,
        259,
        260,
        261,
        262,
        263,
        264,
        265,
        266,
        267,
        268,
        269,
        270,
        271,
        272,
        273,
        274,
        275,
        276,
        277,
        278,
        279,
        280,
        281,
        282,
        283,
        284,
        285,
        286,
        287,
        288
      ],
      "AcquisitionTime": [
        "141939.245000",
        "141940.245000",
        "141941.245000",
        "141942.245000",
        "141943.245000",
        "141944.245000",
        "141945.245000",
        "141946.245000",
        "141947.245000",
        "141948.245000",
        "141949.245000",
        "141950.245000",
        "141951.245000",
        "141952.245000",
        "141953.245000",
        "141954.245000",
        "141955.245000",
        "141956.245000",
        "141957.245000",
        "141958.245000",
        "141959.245000",
        "142000.245000",
        "142001.245000",
        "142002.245000",
        "142003.245000",
        "142004.245000",
        "142005.245000",
        "142006.245000",
        "142007.245000",
        "142008.245000",
        "142009.245000",
        "142010.245000",
        "142011.245000",
        "142012.245000",
        "142013.245000",
        "142014.245000",
        "142015.245000",
        "142016.245000",
        "142017.245000",
        "142018.245000",
        "142019.245000",
        "142020.245000",
        "142021.245000",
        "142022.245000",
        "142023.245000",
        "142024.245000",
        "142025.245000",
        "142026.245000",
        "142027.245000",
        "142028.245000",
        "142029.245000",
        "142030.245000",
        "142031.245000",
        "142032.245000",
        "142033.245000",
        "142034.245000",
        "142035.245000",
        "142036.245000",
        "142037.245000",
        "142038.245000",
        "142039.245000",
        "142040.245000",
        "142041.245000",
        "142042.245000",
        "142043.245000",
        "142044.245000",
        "142045.245000",
        "142046.245000",
        "142047.245000",
        "142048.245000",
        "142049.245000",
        "142050.245000",
        "142051.245000",
        "142052.245000",
        "142053.245000",
        "142054.245000",
        "142055.245000",
        "142056.245000",
        "142057.245000",
        "142058.245000",
        "142059.245000",
        "142100.245000",
        "142101.245000",
        "142102.245000",
        "142103.245000",
        "142104.245000",
        "142105.245000",
        "142106.245000",
        "142107.245000",
        "142108.245000",
        "142109.245000",
        "142110.245000",
        "142111.245000",
        "142112.245000",
        "142113.245000",
        "142114.245000",
        "142115.245000",
        "142116.245000",
        "142117.245000",
        "142118.245000",
        "142119.245000",
        "142120.245000",
        "142121.245000",
        "142122.245000",
        "142123.245000",
        "142124.245000",
        "142125.245000",
        "142126.245000",
        "142127.245000",
        "142128.245000",
        "142129.245000",
        "142130.245000",
        "142131.245000",
        "142132.245000",
        "142133.245000",
        "142134.245000",
        "142135.245000",
        "142136.245000",
        "142137.245000",
        "142138.245000",
        "142139.245000",
        "142140.245000",
        "142141.245000",
        "142142.245000",
        "142143.245000",
        "142144.245000",
        "142145.245000",
        "142146.245000",
        "142147.245000",
        "142148.245000",
        "142149.245000",
        "142150.245000",
        "142151.245000",
        "142152.245000",
        "142153.245000",
        "142154.245000",
        "142155.245000",
        "142156.245000",
        "142157.245000",
        "142158.245000",
        "142159.245000",
        "142200.245000",
        "142201.245000",
        "142202.245000",
        "142203.245000",
        "142204.245000",
        "142205.245000",
        "142206.245000",
        "142207.245000",
        "142208.245000",
        "142209.245000",
        "142210.245000",
        "142211.245000",
        "142212.245000",
        "142213.245000",
        "142214.245000",
        "142215.245000",
        "142216.245000",
        "142217.245000",
        "142218.245000",
        "142219.245000",
        "142220.245000",
        "142221.245000",
        "142222.245000",
        "142223.245000",
        "142224.245000",
        "142225.245000",
        "142226.245000",
        "142227.245000",
        "142228.245000",
        "142229.245000",
        "142230.245000",
        "142231.245000",
        "142232.245000",
        "142233.245000",
        "142234.245000",
        "142235.245000",
        "142236.245000",
        "142237.245000",
        "142238.245000",
        "142239.245000",
        "142240.245000",
        "142241.245000",
        "142242.245000",
        "142243.245000",
        "142244.245000",
        "142245.245000",
        "142246.245000",
        "142247.245000",
        "142248.245000",
        "142249.245000",
        "142250.245000",
        "142251.245000",
        "142252.245000",
        "142253.245000",
        "142254.245000",
        "142255.245000",
        "142256.245000",
        "142257.245000",
        "142258.245000",
        "142259.245000",
        "142300.245000",
        "142301.245000",
        "142302.245000",
        "142303.245000",
        "142304.245000",
        "142305.245000",
        "142306.245000",
        "142307.245000",
        "142308.245000",
        "142309.245000",
        "142310.245000",
        "142311.245000",
        "142312.245000",
        "142313.245000",
        "142314.245000",
        "142315.245000",
        "142316.245000",
        "142317.245000",
        "142318.245000",
        "142319.245000",
        "142320.245000",
        "142321.245000",
        "142322.245000",
        "142323.245000",
        "142324.245000",
        "142325.245000",
        "142326.245000",
        "142327.245000",
        "142328.245000",
        "142329.245000",
        "142330.245000",
        "142331.245000",
        "142332.245000",
        "142333.245000",
        "142334.245000",
        "142335.245000",
        "142336.245000",
        "142337.245000",
        "142338.245000",
        "142339.245000",
        "142340.245000",
        "142341.245000",
        "142342.245000",
        "142343.245000",
        "142344.245000",
        "142345.245000",
        "142346.245000",
        "142347.245000",
        "142348.245000",
        "142349.245000",
        "142350.245000",
        "142351.245000",
        "142352.245000",
        "142353.245000",
        "142354.245000",
        "142355.245000",
        "142356.245000",
        "142357.245000",
        "142358.245000",
        "142359.245000",
        "142400.245000",
        "142401.245000",
        "142402.245000",
        "142403.245000",
        "142404.245000",
        "142405.245000",
        "142406.245000",
        "142407.245000",
        "142408.245000",
        "142409.245000",
        "142410.245000",
        "142411.245000",
        "142412.245000",
        "142413.245000",
        "142414.245000",
        "142415.245000",
        "142416.245000",
        "142417.245000",
        "142418.245000",
        "142419.245000",
        "142420.245000",
        "142421.245000",
        "142422.245000",
        "142423.245000",
        "142424.245000",
        "142425.245000",
        "142426.245000"
      ],
      "ContentTime": [
        "141940.843000",
        "141941.653000",
        "141942.662000",
        "141943.668000",
        "141944.667000",
        "141945.647000",
        "141946.666000",
        "141947.659000",
        "141948.650000",
        "141949.660000",
        "141950.649000",
        "141951.691000",
        "141952.661000",
        "141953.734000",
        "141954.706000",
        "141955.691000",
        "141956.662000",
        "141957.643000",
        "141958.679000",
        "141959.672000",
        "142000.656000",
        "142001.690000",
        "142002.667000",
        "142003.655000",
        "142004.653000",
        "142005.652000",
        "142006.659000",
        "142007.643000",
        "142008.655000",
        "142009.641000",
        "142010.672000",
        "142011.651000",
        "142012.683000",
        "142013.703000",
        "142014.648000",
        "142015.656000",
        "142016.670000",
        "142017.648000",
        "142018.675000",
        "142019.687000",
        "142020.669000",
        "142021.647000",
        "142022.668000",
        "142023.652000",
        "142024.647000",
        "142025.706000",
        "142026.656000",
        "142027.651000",
        "142028.681000",
        "142029.640000",
        "142030.668000",
        "142031.650000",
        "142032.667000",
        "142033.687000",
        "142034.726000",
        "142035.669000",
        "142036.641000",
        "142037.684000",
        "142038.696000",
        "142039.668000",
        "142040.671000",
        "142041.658000",
        "142042.658000",
        "142043.658000",
        "142044.670000",
        "142045.656000",
        "142046.636000",
        "142047.630000",
        "142048.681000",
        "142049.656000",
        "142050.682000",
        "142051.659000",
        "142052.673000",
        "142053.660000",
        "142054.648000",
        "142055.649000",
        "142056.664000",
        "142057.685000",
        "142058.686000",
        "142059.703000",
        "142100.646000",
        "142101.671000",
        "142102.662000",
        "142103.666000",
        "142104.668000",
        "142105.667000",
        "142106.653000",
        "142107.655000",
        "142108.672000",
        "142109.660000",
        "142110.655000",
        "142111.649000",
        "142112.633000",
        "142113.653000",
        "142114.626000",
        "142115.645000",
        "142116.653000",
        "142117.649000",
        "142118.683000",
        "142119.635000",
        "142120.668000",
        "142121.694000",
        "142122.667000",
        "142123.697000",
        "142124.693000",
        "142125.687000",
        "142126.678000",
        "142127.680000",
        "142128.671000",
        "142129.719000",
        "142130.688000",
        "142131.678000",
        "142132.651000",
        "142133.675000",
        "142134.669000",
        "142135.734000",
        "142136.665000",
        "142137.666000",
        "142138.708000",
        "142139.645000",
        "142140.654000",
        "142141.670000",
        "142142.656000",
        "142143.640000",
        "142144.649000",
        "142145.647000",
        "142146.663000",
        "142147.658000",
        "142148.671000",
        "142149.699000",
        "142150.676000",
        "142151.672000",
        "142152.626000",
        "142153.659000",
        "142154.672000",
        "142155.671000",
        "142156.680000",
        "142157.665000",
        "142158.673000",
        "142159.624000",
        "142200.731000",
        "142201.671000",
        "142202.721000",
        "142203.634000",
        "142204.662000",
        "142205.653000",
        "142206.707000",
        "142207.645000",
        "142208.630000",
        "142209.664000",
        "142210.705000",
        "142211.651000",
        "142212.661000",
        "142213.667000",
        "142214.664000",
        "142215.682000",
        "142216.646000",
        "142217.675000",
        "142218.658000",
        "142219.671000",
        "142220.661000",
        "142221.663000",
        "142222.651000",
        "142223.652000",
        "142224.660000",
        "142225.651000",
        "142226.636000",
        "142227.696000",
        "142228.680000",
        "142229.668000",
        "142230.682000",
        "142231.684000",
        "142232.680000",
        "142233.729000",
        "142234.682000",
        "142235.683000",
        "142236.666000",
        "142237.662000",
        "142238.663000",
        "142239.679000",
        "142240.663000",
        "142241.654000",
        "142242.662000",
        "142243.659000",
        "142244.679000",
        "142245.647000",
        "142246.652000",
        "142247.661000",
        "142248.663000",
        "142249.685000",
        "142250.666000",
        "142251.654000",
        "142252.673000",
        "142253.667000",
        "142254.661000",
        "142255.679000",
        "142256.682000",
        "142257.646000",
        "142258.645000",
        "142259.651000",
        "142300.662000",
        "142301.637000",
        "142302.670000",
        "142303.686000",
        "142304.673000",
        "142305.659000",
        "142306.654000",
        "142307.613000",
        "142308.644000",
        "142309.650000",
        "142310.686000",
        "142311.643000",
        "142312.664000",
        "142313.649000",
        "142314.662000",
        "142315.649000",
        "142316.644000",
        "142317.658000",
        "142318.656000",
        "142319.685000",
        "142320.667000",
        "142321.675000",
        "142322.669000",
        "142323.641000",
        "142324.686000",
        "142325.659000",
        "142326.664000",
        "142327.673000",
        "142328.671000",
        "142329.668000",
        "142330.664000",
        "142331.705000",
        "142332.701000",
        "142333.647000",
        "142334.667000",
        "142335.703000",
        "142336.671000",
        "142337.655000",
        "142338.655000",
        "142339.676000",
        "142340.668000",
        "142341.646000",
        "142342.658000",
        "142343.648000",
        "142344.651000",
        "142345.667000",
        "142346.671000",
        "142347.670000",
        "142348.662000",
        "142349.644000",
        "142350.647000",
        "142351.684000",
        "142352.674000",
        "142353.659000",
        "142354.674000",
        "142355.648000",
        "142356.670000",
        "142357.661000",
        "142358.640000",
        "142359.661000",
        "142400.673000",
        "142401.638000",
        "142402.660000",
        "142403.680000",
        "142404.726000",
        "142405.686000",
        "142406.661000",
        "142407.671000",
        "142408.667000",
        "142409.660000",
        "142410.672000",
        "142411.675000",
        "142412.667000",
        "142413.668000",
        "142414.704000",
        "142415.641000",
        "142416.668000",
        "142417.661000",
        "142418.664000",
        "142419.675000",
        "142420.743000",
        "142421.696000",
        "142422.701000",
        "142423.702000",
        "142424.672000",
        "142425.646000",
        "142426.680000",
        "142427.679000"
      ],
      "InstanceCreationTime": [
        "141940.843000",
        "141941.653000",
        "141942.662000",
        "141943.668000",
        "141944.667000",
        "141945.647000",
        "141946.666000",
        "141947.659000",
        "141948.650000",
        "141949.660000",
        "141950.649000",
        "141951.691000",
        "141952.661000",
        "141953.734000",
        "141954.706000",
        "141955.691000",
        "141956.662000",
        "141957.643000",
        "141958.679000",
        "141959.672000",
        "142000.656000",
        "142001.690000",
        "142002.667000",
        "142003.655000",
        "142004.653000",
        "142005.652000",
        "142006.659000",
        "142007.643000",
        "142008.655000",
        "142009.641000",
        "142010.672000",
        "142011.651000",
        "142012.683000",
        "142013.703000",
        "142014.648000",
        "142015.656000",
        "142016.670000",
        "142017.648000",
        "142018.675000",
        "142019.687000",
        "142020.669000",
        "142021.647000",
        "142022.668000",
        "142023.652000",
        "142024.647000",
        "142025.706000",
        "142026.656000",
        "142027.651000",
        "142028.681000",
        "142029.640000",
        "142030.668000",
        "142031.650000",
        "142032.667000",
        "142033.687000",
        "142034.726000",
        "142035.669000",
        "142036.641000",
        "142037.684000",
        "142038.696000",
        "142039.668000",
        "142040.671000",
        "142041.658000",
        "142042.658000",
        "142043.658000",
        "142044.670000",
        "142045.656000",
        "142046.636000",
        "142047.630000",
        "142048.681000",
        "142049.656000",
        "142050.682000",
        "142051.659000",
        "142052.673000",
        "142053.660000",
        "142054.648000",
        "142055.649000",
        "142056.664000",
        "142057.685000",
        "142058.686000",
        "142059.703000",
        "142100.646000",
        "142101.671000",
        "142102.662000",
        "142103.666000",
        "142104.668000",
        "142105.667000",
        "142106.653000",
        "142107.655000",
        "142108.672000",
        "142109.660000",
        "142110.655000",
        "142111.649000",
        "142112.633000",
        "142113.653000",
        "142114.626000",
        "142115.645000",
        "142116.653000",
        "142117.649000",
        "142118.683000",
        "142119.635000",
        "142120.668000",
        "142121.694000",
        "142122.667000",
        "142123.697000",
        "142124.693000",
        "142125.687000",
        "142126.678000",
        "142127.680000",
        "142128.671000",
        "142129.719000",
        "142130.688000",
        "142131.678000",
        "142132.651000",
        "142133.675000",
        "142134.669000",
        "142135.734000",
        "142136.665000",
        "142137.666000",
        "142138.708000",
        "142139.645000",
        "142140.654000",
        "142141.670000",
        "142142.656000",
        "142143.640000",
        "142144.649000",
        "142145.647000",
        "142146.663000",
        "142147.658000",
        "142148.671000",
        "142149.699000",
        "142150.676000",
        "142151.672000",
        "142152.626000",
        "142153.659000",
        "142154.672000",
        "142155.671000",
        "142156.680000",
        "142157.665000",
        "142158.673000",
        "142159.624000",
        "142200.731000",
        "142201.671000",
        "142202.721000",
        "142203.634000",
        "142204.662000",
        "142205.653000",
        "142206.707000",
        "142207.645000",
        "142208.630000",
        "142209.664000",
        "142210.705000",
        "142211.651000",
        "142212.661000",
        "142213.667000",
        "142214.664000",
        "142215.682000",
        "142216.646000",
        "142217.675000",
        "142218.658000",
        "142219.671000",
        "142220.661000",
        "142221.663000",
        "142222.651000",
        "142223.652000",
        "142224.660000",
        "142225.651000",
        "142226.636000",
        "142227.696000",
        "142228.680000",
        "142229.668000",
        "142230.682000",
        "142231.684000",
        "142232.680000",
        "142233.729000",
        "142234.682000",
        "142235.683000",
        "142236.666000",
        "142237.662000",
        "142238.663000",
        "142239.679000",
        "142240.663000",
        "142241.654000",
        "142242.662000",
        "142243.659000",
        "142244.679000",
        "142245.647000",
        "142246.652000",
        "142247.661000",
        "142248.663000",
        "142249.685000",
        "142250.666000",
        "142251.654000",
        "142252.673000",
        "142253.667000",
        "142254.661000",
        "142255.679000",
        "142256.682000",
        "142257.646000",
        "142258.645000",
        "142259.651000",
        "142300.662000",
        "142301.637000",
        "142302.670000",
        "142303.686000",
        "142304.673000",
        "142305.659000",
        "142306.654000",
        "142307.613000",
        "142308.644000",
        "142309.650000",
        "142310.686000",
        "142311.643000",
        "142312.664000",
        "142313.649000",
        "142314.662000",
        "142315.649000",
        "142316.644000",
        "142317.658000",
        "142318.656000",
        "142319.685000",
        "142320.667000",
        "142321.675000",
        "142322.669000",
        "142323.641000",
        "142324.686000",
        "142325.659000",
        "142326.664000",
        "142327.673000",
        "142328.671000",
        "142329.668000",
        "142330.664000",
        "142331.705000",
        "142332.701000",
        "142333.647000",
        "142334.667000",
        "142335.703000",
        "142336.671000",
        "142337.655000",
        "142338.655000",
        "142339.676000",
        "142340.668000",
        "142341.646000",
        "142342.658000",
        "142343.648000",
        "142344.651000",
        "142345.667000",
        "142346.671000",
        "142347.670000",
        "142348.662000",
        "142349.644000",
        "142350.647000",
        "142351.684000",
        "142352.674000",
        "142353.659000",
        "142354.674000",
        "142355.648000",
        "142356.670000",
        "142357.661000",
        "142358.640000",
        "142359.661000",
        "142400.673000",
        "142401.638000",
        "142402.660000",
        "142403.680000",
        "142404.726000",
        "142405.686000",
        "142406.661000",
        "142407.671000",
        "142408.667000",
        "142409.660000",
        "142410.672000",
        "142411.675000",
        "142412.667000",
        "142413.668000",
        "142414.704000",
        "142415.641000",
        "142416.668000",
        "142417.661000",
        "142418.664000",
        "142419.675000",
        "142420.743000",
        "142421.696000",
        "142422.701000",
        "142423.702000",
        "142424.672000",
        "142425.646000",
        "142426.680000",
        "142427.679000"
      ],
      "InstanceNumber": [
        1,
        2,
        3,
        4,
        5,
        6,
        7,
        8,
        9,
        10,
        11,
        12,
        13,
        14,
        15,
        16,
        17,
        18,
        19,
        20,
        21,
        22,
        23,
        24,
        25,
        26,
        27,
        28,
        29,
        30,
        31,
        32,
        33,
        34,
        35,
        36,
        37,
        38,
        39,
        40,
        41,
        42,
        43,
        44,
        45,
        46,
        47,
        48,
        49,
        50,
        51,
        52,
        53,
        54,
        55,
        56,
        57,
        58,
        59,
        60,
        61,
        62,
        63,
        64,
        65,
        66,
        67,
        68,
        69,
        70,
        71,
        72,
        73,
        74,
        75,
        76,
        77,
        78,
        79,
        80,
        81,
        82,
        83,
        84,
        85,
        86,
        87,
        88,
        89,
        90,
        91,
        92,
        93,
        94,
        95,
        96,
        97,
        98,
        99,
        100,
        101,
        102,
        103,
        104,
        105,
        106,
        107,
        108,
        109,
        110,
        111,
        112,
        113,
        114,
        115,
        116,
        117,
        118,
        119,
        120,
        121,
        122,
        123,
        124,
        125,
        126,
        127,
        128,
        129,
        130,
        131,
        132,
        133,
        134,
        135,
        136,
        137,
        138,
        139,
        140,
        141,
        142,
        143,
        144,
        145,
        146,
        147,
        148,
        149,
        150,
        151,
        152,
        153,
        154,
        155,
