{
  "AcquisitionMatrixPE": 96,
  "AcquisitionNumber": 1,
  "BandwidthPerPixelPhaseEncode": 18.939,
  "BaseResolution": 96,
  "BodyPartExamined": "BRAIN",
  "ConsistencyInfo": "N4_VE11C_LATEST_20160120",
  "ConversionSoftware": "dcm2niix",
  "ConversionSoftwareVersion": "v1.0.20171215 (OpenJPEG build) GCC6.3.0",
  "DerivedVendorReportedEchoSpacing": 0.000550011,
  "DeviceSerialNumber": "66112",
  "DwellTime": 2.2e-06,
  "EchoTime": 0.033,
  "EchoTrainLength": 96,
  "EffectiveEchoSpacing": 0.000550011,
  "FlipAngle": 59,
  "ImageOrientationPatientDICOM": [
    0.996673,
    -0.00532555,
    0.0813251,
    0.0071322,
    0.999734,
    -0.0219408
  ],
  "ImageType": [
    "ORIGINAL",
    "PRIMARY",
    "FMRI",
    "NONE",
    "ND",
    "NORM",
    "MOSAIC"
  ],
  "InPlanePhaseEncodingDirectionDICOM": "COL",
  "InstitutionAddress": "Maynard_3_Hanover_NH_US_03755",
  "InstitutionName": "Dartmouth_College_-_PBS",
  "InstitutionalDepartmentName": "Department",
  "MRAcquisitionType": "2D",
  "MagneticFieldStrength": 3,
  "Manufacturer": "Siemens",
  "ManufacturersModelName": "Prisma",
  "Modality": "MR",
  "MultibandAccelerationFactor": 4,
  "PartialFourier": 1,
  "PatientPosition": "HFS",
  "PercentPhaseFOV": 100,
  "PhaseEncodingDirection": "j-",
  "PhaseEncodingSteps": 96,
  "PhaseResolution": 1,
  "PixelBandwidth": 2365,
  "ProcedureStepDescription": "Gobbini_Matteo_1038_hyperface",
  "ProtocolName": "func_run-06_task-visualmemory",
  "PulseSequenceDetails": "%SiemensSeq%_ep2d_bold",
  "ReceiveCoilActiveElements": "HEA;HEP",
  "ReceiveCoilName": "Head_32",
  "ReconMatrixPE": 96,
  "RepetitionTime": 1,
  "SAR": 0.0482292,
  "ScanOptions": "FS",
  "ScanningSequence": "EP",
  "SequenceName": "_epfid2d1_96",
  "SequenceVariant": "SK",
  "SeriesDescription": "func_run-06_task-visualmemory",
  "SeriesNumber": 42,
  "ShimSetting": [
    4161,
    -7690,
    -7337,
    736,
    -41,
    -79,
    -16,
    40
  ],
  "SliceThickness": 2.5,
  "SliceTiming": [
    0.735,
    0,
    0.49,
    0.0825,
    0.5725,
    0.1625,
    0.6525,
    0.3275,
    0.8175,
    0.4075,
    0.8975,
    0.245,
    0.735,
    0,
    0.49,
    0.0825,
    0.5725,
    0.1625,
    0.6525,
    0.3275,
    0.8175,
    0.4075,
    0.8975,
    0.245,
    0.735,
    0,
    0.49,
    0.0825,
    0.5725,
    0.1625,
    0.6525,
    0.3275,
    0.8175,
    0.4075,
    0.8975,
    0.245,
    0.735,
    0,
    0.49,
    0.0825,
    0.5725,
    0.1625,
    0.6525,
    0.3275,
    0.8175,
    0.4075,
    0.8975,
    0.245
  ],
  "SoftwareVersions": "syngo_MR_E11",
  "SpacingBetweenSlices": 2.5,
  "StationName": "AWP66112",
  "TotalReadoutTime": 0.0522511,
  "TxRefAmp": 229.511,
  "time": {
    "samples": {
      "AcquisitionNumber": [
        1,
        2,
        3,
        4,
        5,
        6,
        7,
        8,
        9,
        10,
        11,
        12,
        13,
        14,
        15,
        16,
        17,
        18,
        19,
        20,
        21,
        22,
        23,
        24,
        25,
        26,
        27,
        28,
        29,
        30,
        31,
        32,
        33,
        34,
        35,
        36,
        37,
        38,
        39,
        40,
        41,
        42,
        43,
        44,
        45,
        46,
        47,
        48,
        49,
        50,
        51,
        52,
        53,
        54,
        55,
        56,
        57,
        58,
        59,
        60,
        61,
        62,
        63,
        64,
        65,
        66,
        67,
        68,
        69,
        70,
        71,
        72,
        73,
        74,
        75,
        76,
        77,
        78,
        79,
        80,
        81,
        82,
        83,
        84,
        85,
        86,
        87,
        88,
        89,
        90,
        91,
        92,
        93,
        94,
        95,
        96,
        97,
        98,
        99,
        100,
        101,
        102,
        103,
        104,
        105,
        106,
        107,
        108,
        109,
        110,
        111,
        112,
        113,
        114,
        115,
        116,
        117,
        118,
        119,
        120,
        121,
        122,
        123,
        124,
        125,
        126,
        127,
        128,
        129,
        130,
        131,
        132,
        133,
        134,
        135,
        136,
        137,
        138,
        139,
        140,
        141,
        142,
        143,
        144,
        145,
        146,
        147,
        148,
        149,
        150,
        151,
        152,
        153,
        154,
        155,
        156,
        157,
        158,
        159,
        160,
        161,
        162,
        163,
        164,
        165,
        166,
        167,
        168,
        169,
        170,
        171,
        172,
        173,
        174,
        175,
        176,
        177,
        178,
        179,
        180,
        181,
        182,
        183,
        184,
        185,
        186,
        187,
        188,
        189,
        190,
        191,
        192,
        193,
        194,
        195,
        196,
        197,
        198,
        199,
        200,
        201,
        202,
        203,
        204,
        205,
        206,
        207,
        208,
        209,
        210,
        211,
        212,
        213,
        214,
        215,
        216,
        217,
        218,
        219,
        220,
        221,
        222,
        223,
        224,
        225,
        226,
        227,
        228,
        229,
        230,
        231,
        232,
        233,
        234,
        235,
        236,
        237,
        238,
        239,
        240,
        241,
        242,
        243,
        244,
        245,
        246,
        247,
        248,
        249,
        250,
        251,
        252,
        253,
        254,
        255,
        256,
        257,
        258,
        259,
        260,
        261,
        262,
        263,
        264,
        265,
        266,
        267,
        268,
        269,
        270,
        271,
        272,
        273,
        274,
        275,
        276,
        277,
        278,
        279,
        280,
        281,
        282,
        283,
        284,
        285,
        286,
        287,
        288
      ],
      "AcquisitionTime": [
        "143009.025000",
        "143010.025000",
        "143011.025000",
        "143012.025000",
        "143013.025000",
        "143014.025000",
        "143015.025000",
        "143016.025000",
        "143017.025000",
        "143018.025000",
        "143019.025000",
        "143020.025000",
        "143021.025000",
        "143022.025000",
        "143023.025000",
        "143024.025000",
        "143025.025000",
        "143026.025000",
        "143027.025000",
        "143028.025000",
        "143029.025000",
        "143030.025000",
        "143031.025000",
        "143032.025000",
        "143033.025000",
        "143034.025000",
        "143035.025000",
        "143036.025000",
        "143037.025000",
        "143038.025000",
        "143039.025000",
        "143040.025000",
        "143041.025000",
        "143042.025000",
        "143043.025000",
        "143044.025000",
        "143045.025000",
        "143046.025000",
        "143047.025000",
        "143048.025000",
        "143049.025000",
        "143050.025000",
        "143051.025000",
        "143052.025000",
        "143053.025000",
        "143054.025000",
        "143055.025000",
        "143056.025000",
        "143057.025000",
        "143058.025000",
        "143059.025000",
        "143100.025000",
        "143101.025000",
        "143102.025000",
        "143103.025000",
        "143104.025000",
        "143105.025000",
        "143106.025000",
        "143107.025000",
        "143108.025000",
        "143109.025000",
        "143110.025000",
        "143111.025000",
        "143112.025000",
        "143113.025000",
        "143114.025000",
        "143115.025000",
        "143116.025000",
        "143117.025000",
        "143118.025000",
        "143119.025000",
        "143120.025000",
        "143121.025000",
        "143122.025000",
        "143123.025000",
        "143124.025000",
        "143125.025000",
        "143126.025000",
        "143127.025000",
        "143128.025000",
        "143129.025000",
        "143130.025000",
        "143131.025000",
        "143132.025000",
        "143133.025000",
        "143134.025000",
        "143135.025000",
        "143136.025000",
        "143137.025000",
        "143138.025000",
        "143139.025000",
        "143140.025000",
        "143141.025000",
        "143142.025000",
        "143143.025000",
        "143144.025000",
        "143145.025000",
        "143146.025000",
        "143147.025000",
        "143148.025000",
        "143149.025000",
        "143150.025000",
        "143151.025000",
        "143152.025000",
        "143153.025000",
        "143154.025000",
        "143155.025000",
        "143156.025000",
        "143157.025000",
        "143158.025000",
        "143159.025000",
        "143200.025000",
        "143201.025000",
        "143202.025000",
        "143203.025000",
        "143204.025000",
        "143205.025000",
        "143206.025000",
        "143207.025000",
        "143208.025000",
        "143209.025000",
        "143210.025000",
        "143211.025000",
        "143212.025000",
        "143213.025000",
        "143214.025000",
        "143215.025000",
        "143216.025000",
        "143217.025000",
        "143218.025000",
        "143219.025000",
        "143220.025000",
        "143221.025000",
        "143222.025000",
        "143223.025000",
        "143224.025000",
        "143225.025000",
        "143226.025000",
        "143227.025000",
        "143228.025000",
        "143229.025000",
        "143230.025000",
        "143231.025000",
        "143232.025000",
        "143233.025000",
        "143234.025000",
        "143235.025000",
        "143236.025000",
        "143237.025000",
        "143238.025000",
        "143239.025000",
        "143240.025000",
        "143241.025000",
        "143242.025000",
        "143243.025000",
        "143244.025000",
        "143245.025000",
        "143246.025000",
        "143247.025000",
        "143248.025000",
        "143249.025000",
        "143250.025000",
        "143251.025000",
        "143252.025000",
        "143253.025000",
        "143254.025000",
        "143255.025000",
        "143256.025000",
        "143257.025000",
        "143258.025000",
        "143259.025000",
        "143300.025000",
        "143301.025000",
        "143302.025000",
        "143303.025000",
        "143304.025000",
        "143305.025000",
        "143306.025000",
        "143307.025000",
        "143308.025000",
        "143309.025000",
        "143310.025000",
        "143311.025000",
        "143312.025000",
        "143313.025000",
        "143314.025000",
        "143315.025000",
        "143316.025000",
        "143317.025000",
        "143318.025000",
        "143319.025000",
        "143320.025000",
        "143321.025000",
        "143322.025000",
        "143323.025000",
        "143324.025000",
        "143325.025000",
        "143326.025000",
        "143327.025000",
        "143328.025000",
        "143329.025000",
        "143330.025000",
        "143331.025000",
        "143332.025000",
        "143333.025000",
        "143334.025000",
        "143335.025000",
        "143336.025000",
        "143337.025000",
        "143338.025000",
        "143339.025000",
        "143340.025000",
        "143341.025000",
        "143342.025000",
        "143343.025000",
        "143344.025000",
        "143345.025000",
        "143346.025000",
        "143347.025000",
        "143348.025000",
        "143349.025000",
        "143350.025000",
        "143351.025000",
        "143352.025000",
        "143353.025000",
        "143354.025000",
        "143355.025000",
        "143356.025000",
        "143357.025000",
        "143358.025000",
        "143359.025000",
        "143400.025000",
        "143401.025000",
        "143402.025000",
        "143403.025000",
        "143404.025000",
        "143405.025000",
        "143406.025000",
        "143407.025000",
        "143408.025000",
        "143409.025000",
        "143410.025000",
        "143411.025000",
        "143412.025000",
        "143413.025000",
        "143414.025000",
        "143415.025000",
        "143416.025000",
        "143417.025000",
        "143418.025000",
        "143419.025000",
        "143420.025000",
        "143421.025000",
        "143422.025000",
        "143423.025000",
        "143424.025000",
        "143425.025000",
        "143426.025000",
        "143427.025000",
        "143428.025000",
        "143429.025000",
        "143430.025000",
        "143431.025000",
        "143432.025000",
        "143433.025000",
        "143434.025000",
        "143435.025000",
        "143436.025000",
        "143437.025000",
        "143438.025000",
        "143439.025000",
        "143440.025000",
        "143441.025000",
        "143442.025000",
        "143443.025000",
        "143444.025000",
        "143445.025000",
        "143446.025000",
        "143447.025000",
        "143448.025000",
        "143449.025000",
        "143450.025000",
        "143451.025000",
        "143452.025000",
        "143453.025000",
        "143454.025000",
        "143455.025000",
        "143456.025000"
      ],
      "ContentTime": [
        "143009.948000",
        "143010.844000",
        "143011.805000",
        "143012.831000",
        "143013.807000",
        "143014.793000",
        "143015.821000",
        "143016.797000",
        "143017.843000",
        "143018.841000",
        "143019.811000",
        "143020.780000",
        "143021.797000",
        "143022.823000",
        "143023.793000",
        "143024.798000",
        "143025.761000",
        "143026.792000",
        "143027.793000",
        "143028.846000",
        "143029.795000",
        "143030.784000",
        "143031.781000",
        "143032.808000",
        "143033.794000",
        "143034.784000",
        "143035.800000",
        "143036.805000",
        "143037.786000",
        "143038.787000",
        "143039.794000",
        "143040.782000",
        "143041.750000",
        "143042.790000",
        "143043.830000",
        "143044.803000",
        "143045.765000",
        "143046.823000",
        "143047.799000",
        "143048.820000",
        "143049.815000",
        "143050.771000",
        "143051.839000",
        "143052.782000",
        "143053.781000",
        "143054.760000",
        "143055.786000",
        "143056.773000",
        "143057.872000",
        "143058.797000",
        "143059.801000",
        "143100.812000",
        "143101.785000",
        "143102.834000",
        "143103.789000",
        "143104.800000",
        "143105.805000",
        "143106.801000",
        "143107.797000",
        "143108.783000",
        "143109.799000",
        "143110.816000",
        "143111.798000",
        "143112.792000",
        "143113.823000",
        "143114.806000",
        "143115.840000",
        "143116.886000",
        "143117.835000",
        "143118.833000",
        "143119.801000",
        "143120.795000",
        "143121.772000",
        "143122.799000",
        "143123.773000",
        "143124.801000",
        "143125.774000",
        "143126.784000",
        "143127.808000",
        "143128.815000",
        "143129.843000",
        "143130.775000",
        "143131.987000",
        "143132.786000",
        "143133.809000",
        "143134.796000",
        "143135.833000",
        "143136.792000",
        "143137.821000",
        "143138.790000",
        "143139.800000",
        "143140.806000",
        "143141.788000",
        "143142.801000",
        "143143.840000",
        "143144.787000",
        "143145.788000",
        "143146.795000",
        "143147.784000",
        "143148.783000",
        "143149.781000",
        "143150.828000",
        "143151.861000",
        "143152.801000",
        "143153.823000",
        "143154.796000",
        "143155.825000",
        "143156.861000",
        "143157.806000",
        "143158.784000",
        "143159.822000",
        "143200.803000",
        "143201.801000",
        "143202.804000",
        "143203.808000",
        "143204.798000",
        "143205.790000",
        "143206.830000",
        "143207.806000",
        "143208.808000",
        "143209.806000",
        "143210.843000",
        "143211.763000",
        "143212.817000",
        "143213.889000",
        "143214.848000",
        "143215.859000",
        "143216.783000",
        "143217.799000",
        "143218.798000",
        "143219.785000",
        "143220.794000",
        "143221.796000",
        "143222.809000",
        "143223.804000",
        "143224.783000",
        "143225.820000",
        "143226.815000",
        "143227.759000",
        "143228.798000",
        "143229.815000",
        "143230.777000",
        "143231.789000",
        "143232.783000",
        "143233.806000",
        "143234.802000",
        "143235.838000",
        "143236.777000",
        "143237.796000",
        "143238.797000",
        "143239.782000",
        "143240.768000",
        "143241.779000",
        "143242.826000",
        "143243.785000",
        "143244.798000",
        "143245.825000",
        "143246.816000",
        "143247.777000",
        "143248.795000",
        "143249.864000",
        "143250.793000",
        "143251.846000",
        "143252.819000",
        "143253.788000",
        "143254.792000",
        "143255.777000",
        "143256.792000",
        "143257.813000",
        "143258.789000",
        "143259.768000",
        "143300.801000",
        "143301.845000",
        "143302.775000",
        "143303.788000",
        "143304.769000",
        "143305.797000",
        "143306.798000",
        "143307.841000",
        "143308.819000",
        "143309.790000",
        "143310.807000",
        "143311.794000",
        "143312.766000",
        "143313.764000",
        "143314.823000",
        "143315.810000",
        "143316.792000",
        "143317.843000",
        "143318.782000",
        "143319.829000",
        "143320.839000",
        "143321.788000",
        "143322.807000",
        "143323.825000",
        "143324.826000",
        "143325.835000",
        "143326.784000",
        "143327.770000",
        "143328.789000",
        "143329.780000",
        "143330.799000",
        "143331.808000",
        "143332.784000",
        "143333.834000",
        "143334.877000",
        "143335.794000",
        "143336.798000",
        "143337.775000",
        "143338.779000",
        "143339.772000",
        "143340.788000",
        "143341.812000",
        "143342.813000",
        "143343.792000",
        "143344.844000",
        "143345.859000",
        "143346.826000",
        "143347.841000",
        "143348.787000",
        "143349.821000",
        "143350.814000",
        "143351.832000",
        "143352.761000",
        "143353.762000",
        "143354.775000",
        "143355.845000",
        "143356.783000",
        "143357.781000",
        "143358.793000",
        "143359.834000",
        "143400.800000",
        "143401.786000",
        "143402.774000",
        "143403.777000",
        "143404.814000",
        "143405.778000",
        "143406.780000",
        "143407.786000",
        "143408.793000",
        "143409.799000",
        "143410.805000",
        "143411.787000",
        "143412.793000",
        "143413.788000",
        "143414.788000",
        "143415.819000",
        "143416.791000",
        "143417.843000",
        "143418.824000",
        "143419.802000",
        "143420.792000",
        "143421.779000",
        "143422.758000",
        "143423.836000",
        "143424.755000",
        "143425.786000",
        "143426.817000",
        "143427.832000",
        "143428.793000",
        "143429.780000",
        "143430.811000",
        "143431.775000",
        "143432.794000",
        "143433.821000",
        "143434.775000",
        "143435.841000",
        "143436.798000",
        "143437.786000",
        "143438.802000",
        "143439.828000",
        "143440.799000",
        "143441.789000",
        "143442.800000",
        "143443.839000",
        "143444.848000",
        "143445.805000",
        "143446.763000",
        "143447.823000",
        "143448.767000",
        "143449.815000",
        "143450.771000",
        "143451.774000",
        "143452.806000",
        "143453.835000",
        "143454.799000",
        "143455.771000",
        "143456.816000"
      ],
      "InstanceCreationTime": [
        "143009.948000",
        "143010.844000",
        "143011.805000",
        "143012.831000",
        "143013.807000",
        "143014.793000",
        "143015.821000",
        "143016.797000",
        "143017.843000",
        "143018.841000",
        "143019.811000",
        "143020.780000",
        "143021.797000",
        "143022.823000",
        "143023.793000",
        "143024.798000",
        "143025.761000",
        "143026.792000",
        "143027.793000",
        "143028.846000",
        "143029.795000",
        "143030.784000",
        "143031.781000",
        "143032.808000",
        "143033.794000",
        "143034.784000",
        "143035.800000",
        "143036.805000",
        "143037.786000",
        "143038.787000",
        "143039.794000",
        "143040.782000",
        "143041.750000",
        "143042.790000",
        "143043.830000",
        "143044.803000",
        "143045.765000",
        "143046.823000",
        "143047.799000",
        "143048.820000",
        "143049.815000",
        "143050.771000",
        "143051.839000",
        "143052.782000",
        "143053.781000",
        "143054.760000",
        "143055.786000",
        "143056.773000",
        "143057.872000",
        "143058.797000",
        "143059.801000",
        "143100.812000",
        "143101.785000",
        "143102.834000",
        "143103.789000",
        "143104.800000",
        "143105.805000",
        "143106.801000",
        "143107.797000",
        "143108.783000",
        "143109.799000",
        "143110.816000",
        "143111.798000",
        "143112.792000",
        "143113.823000",
        "143114.806000",
        "143115.840000",
        "143116.886000",
        "143117.835000",
        "143118.833000",
        "143119.801000",
        "143120.795000",
        "143121.772000",
        "143122.799000",
        "143123.773000",
        "143124.801000",
        "143125.774000",
        "143126.784000",
        "143127.808000",
        "143128.815000",
        "143129.843000",
        "143130.775000",
        "143131.987000",
        "143132.786000",
        "143133.809000",
        "143134.796000",
        "143135.833000",
        "143136.792000",
        "143137.821000",
        "143138.790000",
        "143139.800000",
        "143140.806000",
        "143141.788000",
        "143142.801000",
        "143143.840000",
        "143144.787000",
        "143145.788000",
        "143146.795000",
        "143147.784000",
        "143148.783000",
        "143149.781000",
        "143150.828000",
        "143151.861000",
        "143152.801000",
        "143153.823000",
        "143154.796000",
        "143155.825000",
        "143156.861000",
        "143157.806000",
        "143158.784000",
        "143159.822000",
        "143200.803000",
        "143201.801000",
        "143202.804000",
        "143203.808000",
        "143204.798000",
        "143205.790000",
        "143206.830000",
        "143207.806000",
        "143208.808000",
        "143209.806000",
        "143210.843000",
        "143211.763000",
        "143212.817000",
        "143213.889000",
        "143214.848000",
        "143215.859000",
        "143216.783000",
        "143217.799000",
        "143218.798000",
        "143219.785000",
        "143220.794000",
        "143221.796000",
        "143222.809000",
        "143223.804000",
        "143224.783000",
        "143225.820000",
        "143226.815000",
        "143227.759000",
        "143228.798000",
        "143229.815000",
        "143230.777000",
        "143231.789000",
        "143232.783000",
        "143233.806000",
        "143234.802000",
        "143235.838000",
        "143236.777000",
        "143237.796000",
        "143238.797000",
        "143239.782000",
        "143240.768000",
        "143241.779000",
        "143242.826000",
        "143243.785000",
        "143244.798000",
        "143245.825000",
        "143246.816000",
        "143247.777000",
        "143248.795000",
        "143249.864000",
        "143250.793000",
        "143251.846000",
        "143252.819000",
        "143253.788000",
        "143254.792000",
        "143255.777000",
        "143256.792000",
        "143257.813000",
        "143258.789000",
        "143259.768000",
        "143300.801000",
        "143301.845000",
        "143302.775000",
        "143303.788000",
        "143304.769000",
        "143305.797000",
        "143306.798000",
        "143307.841000",
        "143308.819000",
        "143309.790000",
        "143310.807000",
        "143311.794000",
        "143312.766000",
        "143313.764000",
        "143314.823000",
        "143315.810000",
        "143316.792000",
        "143317.843000",
        "143318.782000",
        "143319.829000",
        "143320.839000",
        "143321.788000",
        "143322.807000",
        "143323.825000",
        "143324.826000",
        "143325.835000",
        "143326.784000",
        "143327.770000",
        "143328.789000",
        "143329.780000",
        "143330.799000",
        "143331.808000",
        "143332.784000",
        "143333.834000",
        "143334.877000",
        "143335.794000",
        "143336.798000",
        "143337.775000",
        "143338.779000",
        "143339.772000",
        "143340.788000",
        "143341.812000",
        "143342.813000",
        "143343.792000",
        "143344.844000",
        "143345.859000",
        "143346.826000",
        "143347.841000",
        "143348.787000",
        "143349.821000",
        "143350.814000",
        "143351.832000",
        "143352.761000",
        "143353.762000",
        "143354.775000",
        "143355.845000",
        "143356.783000",
        "143357.781000",
        "143358.793000",
        "143359.834000",
        "143400.800000",
        "143401.786000",
        "143402.774000",
        "143403.777000",
        "143404.814000",
        "143405.778000",
        "143406.780000",
        "143407.786000",
        "143408.793000",
        "143409.799000",
        "143410.805000",
        "143411.787000",
        "143412.793000",
        "143413.788000",
        "143414.788000",
        "143415.819000",
        "143416.791000",
        "143417.843000",
        "143418.824000",
        "143419.802000",
        "143420.792000",
        "143421.779000",
        "143422.758000",
        "143423.836000",
        "143424.755000",
        "143425.786000",
        "143426.817000",
        "143427.832000",
        "143428.793000",
        "143429.780000",
        "143430.811000",
        "143431.775000",
        "143432.794000",
        "143433.821000",
        "143434.775000",
        "143435.841000",
        "143436.798000",
        "143437.786000",
        "143438.802000",
        "143439.828000",
        "143440.799000",
        "143441.789000",
        "143442.800000",
        "143443.839000",
        "143444.848000",
        "143445.805000",
        "143446.763000",
        "143447.823000",
        "143448.767000",
        "143449.815000",
        "143450.771000",
        "143451.774000",
        "143452.806000",
        "143453.835000",
        "143454.799000",
        "143455.771000",
        "143456.816000"
      ],
      "InstanceNumber": [
        1,
        2,
        3,
        4,
        5,
        6,
        7,
        8,
        9,
        10,
        11,
        12,
        13,
        14,
        15,
        16,
        17,
        18,
        19,
        20,
        21,
        22,
        23,
        24,
        25,
        26,
        27,
        28,
        29,
        30,
        31,
        32,
        33,
        34,
        35,
        36,
        37,
        38,
        39,
        40,
        41,
        42,
        43,
        44,
        45,
        46,
        47,
        48,
        49,
        50,
        51,
        52,
        53,
        54,
        55,
        56,
        57,
        58,
        59,
        60,
        61,
        62,
        63,
        64,
        65,
        66,
        67,
        68,
        69,
        70,
        71,
        72,
        73,
        74,
        75,
        76,
        77,
        78,
        79,
        80,
        81,
        82,
        83,
        84,
        85,
        86,
        87,
        88,
        89,
        90,
        91,
        92,
        93,
        94,
        95,
        96,
        97,
        98,
        99,
        100,
        101,
        102,
        103,
        104,
        105,
        106,
        107,
        108,
        109,
        110,
        111,
        112,
        113,
        114,
        115,
        116,
        117,
        118,
        119,
        120,
        121,
        122,
        123,
        124,
        125,
        126,
        127,
        128,
        129,
        130,
        131,
        132,
        133,
        134,
        135,
        136,
        137,
        138,
        139,
        140,
        141,
        142,
        143,
        144,
        145,
        146,
        147,
        148,
        149,
        150,
        151,
        152,
        153,
