{
  "AcquisitionMatrixPE": 96,
  "AcquisitionNumber": 1,
  "BandwidthPerPixelPhaseEncode": 18.939,
  "BaseResolution": 96,
  "BodyPartExamined": "BRAIN",
  "ConsistencyInfo": "N4_VE11C_LATEST_20160120",
  "ConversionSoftware": "dcm2niix",
  "ConversionSoftwareVersion": "v1.0.20171215 (OpenJPEG build) GCC6.3.0",
  "DerivedVendorReportedEchoSpacing": 0.000550011,
  "DeviceSerialNumber": "66112",
  "DwellTime": 2.2e-06,
  "EchoTime": 0.033,
  "EchoTrainLength": 96,
  "EffectiveEchoSpacing": 0.000550011,
  "FlipAngle": 59,
  "ImageOrientationPatientDICOM": [
    0.996673,
    -0.00532555,
    0.0813251,
    0.0071322,
    0.999734,
    -0.0219408
  ],
  "ImageType": [
    "ORIGINAL",
    "PRIMARY",
    "FMRI",
    "NONE",
    "ND",
    "NORM",
    "MOSAIC"
  ],
  "InPlanePhaseEncodingDirectionDICOM": "COL",
  "InstitutionAddress": "Maynard_3_Hanover_NH_US_03755",
  "InstitutionName": "Dartmouth_College_-_PBS",
  "InstitutionalDepartmentName": "Department",
  "MRAcquisitionType": "2D",
  "MagneticFieldStrength": 3,
  "Manufacturer": "Siemens",
  "ManufacturersModelName": "Prisma",
  "Modality": "MR",
  "MultibandAccelerationFactor": 4,
  "PartialFourier": 1,
  "PatientPosition": "HFS",
  "PercentPhaseFOV": 100,
  "PhaseEncodingDirection": "j-",
  "PhaseEncodingSteps": 96,
  "PhaseResolution": 1,
  "PixelBandwidth": 2365,
  "ProcedureStepDescription": "Gobbini_Matteo_1038_hyperface",
  "ProtocolName": "func_run-07_task-visualmemory",
  "PulseSequenceDetails": "%SiemensSeq%_ep2d_bold",
  "ReceiveCoilActiveElements": "HEA;HEP",
  "ReceiveCoilName": "Head_32",
  "ReconMatrixPE": 96,
  "RepetitionTime": 1,
  "SAR": 0.0482292,
  "ScanOptions": "FS",
  "ScanningSequence": "EP",
  "SequenceName": "_epfid2d1_96",
  "SequenceVariant": "SK",
  "SeriesDescription": "func_run-07_task-visualmemory",
  "SeriesNumber": 49,
  "ShimSetting": [
    4161,
    -7690,
    -7337,
    736,
    -41,
    -79,
    -16,
    40
  ],
  "SliceThickness": 2.5,
  "SliceTiming": [
    0.735,
    0,
    0.49,
    0.0825,
    0.5725,
    0.165,
    0.655,
    0.3275,
    0.8175,
    0.41,
    0.9,
    0.245,
    0.735,
    0,
    0.49,
    0.0825,
    0.5725,
    0.165,
    0.655,
    0.3275,
    0.8175,
    0.41,
    0.9,
    0.245,
    0.735,
    0,
    0.49,
    0.0825,
    0.5725,
    0.165,
    0.655,
    0.3275,
    0.8175,
    0.41,
    0.9,
    0.245,
    0.735,
    0,
    0.49,
    0.0825,
    0.5725,
    0.165,
    0.655,
    0.3275,
    0.8175,
    0.41,
    0.9,
    0.245
  ],
  "SoftwareVersions": "syngo_MR_E11",
  "SpacingBetweenSlices": 2.5,
  "StationName": "AWP66112",
  "TotalReadoutTime": 0.0522511,
  "TxRefAmp": 229.511,
  "time": {
    "samples": {
      "AcquisitionNumber": [
        1,
        2,
        3,
        4,
        5,
        6,
        7,
        8,
        9,
        10,
        11,
        12,
        13,
        14,
        15,
        16,
        17,
        18,
        19,
        20,
        21,
        22,
        23,
        24,
        25,
        26,
        27,
        28,
        29,
        30,
        31,
        32,
        33,
        34,
        35,
        36,
        37,
        38,
        39,
        40,
        41,
        42,
        43,
        44,
        45,
        46,
        47,
        48,
        49,
        50,
        51,
        52,
        53,
        54,
        55,
        56,
        57,
        58,
        59,
        60,
        61,
        62,
        63,
        64,
        65,
        66,
        67,
        68,
        69,
        70,
        71,
        72,
        73,
        74,
        75,
        76,
        77,
        78,
        79,
        80,
        81,
        82,
        83,
        84,
        85,
        86,
        87,
        88,
        89,
        90,
        91,
        92,
        93,
        94,
        95,
        96,
        97,
        98,
        99,
        100,
        101,
        102,
        103,
        104,
        105,
        106,
        107,
        108,
        109,
        110,
        111,
        112,
        113,
        114,
        115,
        116,
        117,
        118,
        119,
        120,
        121,
        122,
        123,
        124,
        125,
        126,
        127,
        128,
        129,
        130,
        131,
        132,
        133,
        134,
        135,
        136,
        137,
        138,
        139,
        140,
        141,
        142,
        143,
        144,
        145,
        146,
        147,
        148,
        149,
        150,
        151,
        152,
        153,
        154,
        155,
        156,
        157,
        158,
        159,
        160,
        161,
        162,
        163,
        164,
        165,
        166,
        167,
        168,
        169,
        170,
        171,
        172,
        173,
        174,
        175,
        176,
        177,
        178,
        179,
        180,
        181,
        182,
        183,
        184,
        185,
        186,
        187,
        188,
        189,
        190,
        191,
        192,
        193,
        194,
        195,
        196,
        197,
        198,
        199,
        200,
        201,
        202,
        203,
        204,
        205,
        206,
        207,
        208,
        209,
        210,
        211,
        212,
        213,
        214,
        215,
        216,
        217,
        218,
        219,
        220,
        221,
        222,
        223,
        224,
        225,
        226,
        227,
        228,
        229,
        230,
        231,
        232,
        233,
        234,
        235,
        236,
        237,
        238,
        239,
        240,
        241,
        242,
        243,
        244,
        245,
        246,
        247,
        248,
        249,
        250,
        251,
        252,
        253,
        254,
        255,
        256,
        257,
        258,
        259,
        260,
        261,
        262,
        263,
        264,
        265,
        266,
        267,
        268,
        269,
        270,
        271,
        272,
        273,
        274,
        275,
        276,
        277,
        278,
        279,
        280,
        281,
        282,
        283,
        284,
        285,
        286,
        287,
        288
      ],
      "AcquisitionTime": [
        "143535.777500",
        "143536.777500",
        "143537.777500",
        "143538.777500",
        "143539.777500",
        "143540.777500",
        "143541.777500",
        "143542.777500",
        "143543.777500",
        "143544.777500",
        "143545.777500",
        "143546.777500",
        "143547.777500",
        "143548.777500",
        "143549.777500",
        "143550.777500",
        "143551.777500",
        "143552.777500",
        "143553.777500",
        "143554.777500",
        "143555.777500",
        "143556.777500",
        "143557.777500",
        "143558.777500",
        "143559.777500",
        "143600.777500",
        "143601.777500",
        "143602.777500",
        "143603.777500",
        "143604.777500",
        "143605.777500",
        "143606.777500",
        "143607.777500",
        "143608.777500",
        "143609.777500",
        "143610.777500",
        "143611.777500",
        "143612.777500",
        "143613.777500",
        "143614.777500",
        "143615.777500",
        "143616.777500",
        "143617.777500",
        "143618.777500",
        "143619.777500",
        "143620.777500",
        "143621.777500",
        "143622.777500",
        "143623.777500",
        "143624.777500",
        "143625.777500",
        "143626.777500",
        "143627.777500",
        "143628.777500",
        "143629.777500",
        "143630.777500",
        "143631.777500",
        "143632.777500",
        "143633.777500",
        "143634.777500",
        "143635.777500",
        "143636.777500",
        "143637.777500",
        "143638.777500",
        "143639.777500",
        "143640.777500",
        "143641.777500",
        "143642.777500",
        "143643.777500",
        "143644.777500",
        "143645.777500",
        "143646.777500",
        "143647.777500",
        "143648.777500",
        "143649.777500",
        "143650.777500",
        "143651.777500",
        "143652.777500",
        "143653.777500",
        "143654.777500",
        "143655.777500",
        "143656.777500",
        "143657.777500",
        "143658.777500",
        "143659.777500",
        "143700.777500",
        "143701.777500",
        "143702.777500",
        "143703.777500",
        "143704.777500",
        "143705.777500",
        "143706.777500",
        "143707.777500",
        "143708.777500",
        "143709.777500",
        "143710.777500",
        "143711.777500",
        "143712.777500",
        "143713.777500",
        "143714.777500",
        "143715.777500",
        "143716.777500",
        "143717.777500",
        "143718.777500",
        "143719.777500",
        "143720.777500",
        "143721.777500",
        "143722.777500",
        "143723.777500",
        "143724.777500",
        "143725.777500",
        "143726.777500",
        "143727.777500",
        "143728.777500",
        "143729.777500",
        "143730.777500",
        "143731.777500",
        "143732.777500",
        "143733.777500",
        "143734.777500",
        "143735.777500",
        "143736.777500",
        "143737.777500",
        "143738.777500",
        "143739.777500",
        "143740.777500",
        "143741.777500",
        "143742.777500",
        "143743.777500",
        "143744.777500",
        "143745.777500",
        "143746.777500",
        "143747.777500",
        "143748.777500",
        "143749.777500",
        "143750.777500",
        "143751.777500",
        "143752.777500",
        "143753.777500",
        "143754.777500",
        "143755.777500",
        "143756.777500",
        "143757.777500",
        "143758.777500",
        "143759.777500",
        "143800.777500",
        "143801.777500",
        "143802.777500",
        "143803.777500",
        "143804.777500",
        "143805.777500",
        "143806.777500",
        "143807.777500",
        "143808.777500",
        "143809.777500",
        "143810.777500",
        "143811.777500",
        "143812.777500",
        "143813.777500",
        "143814.777500",
        "143815.777500",
        "143816.777500",
        "143817.777500",
        "143818.777500",
        "143819.777500",
        "143820.777500",
        "143821.777500",
        "143822.777500",
        "143823.777500",
        "143824.777500",
        "143825.777500",
        "143826.777500",
        "143827.777500",
        "143828.777500",
        "143829.777500",
        "143830.777500",
        "143831.777500",
        "143832.777500",
        "143833.777500",
        "143834.777500",
        "143835.777500",
        "143836.777500",
        "143837.777500",
        "143838.777500",
        "143839.777500",
        "143840.777500",
        "143841.777500",
        "143842.777500",
        "143843.777500",
        "143844.777500",
        "143845.777500",
        "143846.777500",
        "143847.777500",
        "143848.777500",
        "143849.777500",
        "143850.777500",
        "143851.777500",
        "143852.777500",
        "143853.777500",
        "143854.777500",
        "143855.777500",
        "143856.777500",
        "143857.777500",
        "143858.777500",
        "143859.777500",
        "143900.777500",
        "143901.777500",
        "143902.777500",
        "143903.777500",
        "143904.777500",
        "143905.777500",
        "143906.777500",
        "143907.777500",
        "143908.777500",
        "143909.777500",
        "143910.777500",
        "143911.777500",
        "143912.777500",
        "143913.777500",
        "143914.777500",
        "143915.777500",
        "143916.777500",
        "143917.777500",
        "143918.777500",
        "143919.777500",
        "143920.777500",
        "143921.777500",
        "143922.777500",
        "143923.777500",
        "143924.777500",
        "143925.777500",
        "143926.777500",
        "143927.777500",
        "143928.777500",
        "143929.777500",
        "143930.777500",
        "143931.777500",
        "143932.777500",
        "143933.777500",
        "143934.777500",
        "143935.777500",
        "143936.777500",
        "143937.777500",
        "143938.777500",
        "143939.777500",
        "143940.777500",
        "143941.777500",
        "143942.777500",
        "143943.777500",
        "143944.777500",
        "143945.777500",
        "143946.777500",
        "143947.777500",
        "143948.777500",
        "143949.777500",
        "143950.777500",
        "143951.777500",
        "143952.777500",
        "143953.777500",
        "143954.777500",
        "143955.777500",
        "143956.777500",
        "143957.777500",
        "143958.777500",
        "143959.777500",
        "144000.777500",
        "144001.777500",
        "144002.777500",
        "144003.777500",
        "144004.777500",
        "144005.777500",
        "144006.777500",
        "144007.777500",
        "144008.777500",
        "144009.777500",
        "144010.777500",
        "144011.777500",
        "144012.777500",
        "144013.777500",
        "144014.777500",
        "144015.777500",
        "144016.777500",
        "144017.777500",
        "144018.777500",
        "144019.777500",
        "144020.777500",
        "144021.777500",
        "144022.777500"
      ],
      "ContentTime": [
        "143537.053000",
        "143537.851000",
        "143538.858000",
        "143539.892000",
        "143540.852000",
        "143541.863000",
        "143542.859000",
        "143543.810000",
        "143544.854000",
        "143545.841000",
        "143546.877000",
        "143547.868000",
        "143548.842000",
        "143549.923000",
        "143550.860000",
        "143551.867000",
        "143552.836000",
        "143553.866000",
        "143554.904000",
        "143555.851000",
        "143556.836000",
        "143557.878000",
        "143558.845000",
        "143559.820000",
        "143600.851000",
        "143601.839000",
        "143602.883000",
        "143603.834000",
        "143604.845000",
        "143605.842000",
        "143606.849000",
        "143607.893000",
        "143608.839000",
        "143609.868000",
        "143610.845000",
        "143611.849000",
        "143612.840000",
        "143613.842000",
        "143614.871000",
        "143615.871000",
        "143616.894000",
        "143617.856000",
        "143618.854000",
        "143619.865000",
        "143620.849000",
        "143621.861000",
        "143622.863000",
        "143623.878000",
        "143624.862000",
        "143625.863000",
        "143626.833000",
        "143627.854000",
        "143628.879000",
        "143629.854000",
        "143630.834000",
        "143631.883000",
        "143632.860000",
        "143633.866000",
        "143634.868000",
        "143635.901000",
        "143636.881000",
        "143637.884000",
        "143638.886000",
        "143639.850000",
        "143640.858000",
        "143641.899000",
        "143642.820000",
        "143643.893000",
        "143644.872000",
        "143645.887000",
        "143646.850000",
        "143647.852000",
        "143648.885000",
        "143649.864000",
        "143650.826000",
        "143651.856000",
        "143652.882000",
        "143653.848000",
        "143654.891000",
        "143655.854000",
        "143656.849000",
        "143657.875000",
        "143658.864000",
        "143659.848000",
        "143700.853000",
        "143701.862000",
        "143702.863000",
        "143703.852000",
        "143704.859000",
        "143705.851000",
        "143706.879000",
        "143707.874000",
        "143708.855000",
        "143709.823000",
        "143710.861000",
        "143711.852000",
        "143712.834000",
        "143713.865000",
        "143714.858000",
        "143715.835000",
        "143716.880000",
        "143717.901000",
        "143718.856000",
        "143719.836000",
        "143720.843000",
        "143721.858000",
        "143722.876000",
        "143723.863000",
        "143724.848000",
        "143725.850000",
        "143726.846000",
        "143727.875000",
        "143728.872000",
        "143729.846000",
        "143730.856000",
        "143731.854000",
        "143732.855000",
        "143733.863000",
        "143734.904000",
        "143735.863000",
        "143736.878000",
        "143737.827000",
        "143738.842000",
        "143739.841000",
        "143740.843000",
        "143741.897000",
        "143742.862000",
        "143743.856000",
        "143744.923000",
        "143745.869000",
        "143746.862000",
        "143747.846000",
        "143748.861000",
        "143749.863000",
        "143750.899000",
        "143751.883000",
        "143752.899000",
        "143753.889000",
        "143754.875000",
        "143755.881000",
        "143756.890000",
        "143757.851000",
        "143758.855000",
        "143759.885000",
        "143800.885000",
        "143801.914000",
        "143802.870000",
        "143803.881000",
        "143804.904000",
        "143805.871000",
        "143806.869000",
        "143807.860000",
        "143808.893000",
        "143809.865000",
        "143810.850000",
        "143811.850000",
        "143812.869000",
        "143813.862000",
        "143814.817000",
        "143815.844000",
        "143816.839000",
        "143817.864000",
        "143818.860000",
        "143819.836000",
        "143820.862000",
        "143821.857000",
        "143822.869000",
        "143823.855000",
        "143824.854000",
        "143825.873000",
        "143826.836000",
        "143827.846000",
        "143828.844000",
        "143829.847000",
        "143830.887000",
        "143831.852000",
        "143832.840000",
        "143833.849000",
        "143834.875000",
        "143835.861000",
        "143836.893000",
        "143837.854000",
        "143838.862000",
        "143839.881000",
        "143840.840000",
        "143841.901000",
        "143842.926000",
        "143843.871000",
        "143844.888000",
        "143845.849000",
        "143846.888000",
        "143847.907000",
        "143848.849000",
        "143849.854000",
        "143850.864000",
        "143851.862000",
        "143852.865000",
        "143853.852000",
        "143854.860000",
        "143855.871000",
        "143856.873000",
        "143857.857000",
        "143858.856000",
        "143859.845000",
        "143900.901000",
        "143901.859000",
        "143902.860000",
        "143903.869000",
        "143904.850000",
        "143905.868000",
        "143906.889000",
        "143907.861000",
        "143908.839000",
        "143909.840000",
        "143910.870000",
        "143911.854000",
        "143912.879000",
        "143913.846000",
        "143914.860000",
        "143915.865000",
        "143916.876000",
        "143917.894000",
        "143918.864000",
        "143919.851000",
        "143920.834000",
        "143921.880000",
        "143922.868000",
        "143923.863000",
        "143924.879000",
        "143925.912000",
        "143926.891000",
        "143927.831000",
        "143928.849000",
        "143929.850000",
        "143930.844000",
        "143931.855000",
        "143932.870000",
        "143933.852000",
        "143934.855000",
        "143935.866000",
        "143936.852000",
        "143937.851000",
        "143938.846000",
        "143939.848000",
        "143940.853000",
        "143941.876000",
        "143942.869000",
        "143943.885000",
        "143944.880000",
        "143945.873000",
        "143946.860000",
        "143947.848000",
        "143948.891000",
        "143949.895000",
        "143950.873000",
        "143951.866000",
        "143952.831000",
        "143953.852000",
        "143954.857000",
        "143955.860000",
        "143956.849000",
        "143957.860000",
        "143958.866000",
        "143959.844000",
        "144000.848000",
        "144001.859000",
        "144002.836000",
        "144003.849000",
        "144004.902000",
        "144005.859000",
        "144006.835000",
        "144007.915000",
        "144008.894000",
        "144009.889000",
        "144010.842000",
        "144011.905000",
        "144012.865000",
        "144013.862000",
        "144014.860000",
        "144015.926000",
        "144016.820000",
        "144017.891000",
        "144018.876000",
        "144019.853000",
        "144020.861000",
        "144021.922000",
        "144022.869000",
        "144023.876000"
      ],
      "InstanceCreationTime": [
        "143537.053000",
        "143537.851000",
        "143538.858000",
        "143539.892000",
        "143540.852000",
        "143541.863000",
        "143542.859000",
        "143543.810000",
        "143544.854000",
        "143545.841000",
        "143546.877000",
        "143547.868000",
        "143548.842000",
        "143549.923000",
        "143550.860000",
        "143551.867000",
        "143552.836000",
        "143553.866000",
        "143554.904000",
        "143555.851000",
        "143556.836000",
        "143557.878000",
        "143558.845000",
        "143559.820000",
        "143600.851000",
        "143601.839000",
        "143602.883000",
        "143603.834000",
        "143604.845000",
        "143605.842000",
        "143606.849000",
        "143607.893000",
        "143608.839000",
        "143609.868000",
        "143610.845000",
        "143611.849000",
        "143612.840000",
        "143613.842000",
        "143614.871000",
        "143615.871000",
        "143616.894000",
        "143617.856000",
        "143618.854000",
        "143619.865000",
        "143620.849000",
        "143621.861000",
        "143622.863000",
        "143623.878000",
        "143624.862000",
        "143625.863000",
        "143626.833000",
        "143627.854000",
        "143628.879000",
        "143629.854000",
        "143630.834000",
        "143631.883000",
        "143632.860000",
        "143633.866000",
        "143634.868000",
        "143635.901000",
        "143636.881000",
        "143637.884000",
        "143638.886000",
        "143639.850000",
        "143640.858000",
        "143641.899000",
        "143642.820000",
        "143643.893000",
        "143644.872000",
        "143645.887000",
        "143646.850000",
        "143647.852000",
        "143648.885000",
        "143649.864000",
        "143650.826000",
        "143651.856000",
        "143652.882000",
        "143653.848000",
        "143654.891000",
        "143655.854000",
        "143656.849000",
        "143657.875000",
        "143658.864000",
        "143659.848000",
        "143700.853000",
        "143701.862000",
        "143702.863000",
        "143703.852000",
        "143704.859000",
        "143705.851000",
        "143706.879000",
        "143707.874000",
        "143708.855000",
        "143709.823000",
        "143710.861000",
        "143711.852000",
        "143712.834000",
        "143713.865000",
        "143714.858000",
        "143715.835000",
        "143716.880000",
        "143717.901000",
        "143718.856000",
        "143719.836000",
        "143720.843000",
        "143721.858000",
        "143722.876000",
        "143723.863000",
        "143724.848000",
        "143725.850000",
        "143726.846000",
        "143727.875000",
        "143728.872000",
        "143729.846000",
        "143730.856000",
        "143731.854000",
        "143732.855000",
        "143733.863000",
        "143734.904000",
        "143735.863000",
        "143736.878000",
        "143737.827000",
        "143738.842000",
        "143739.841000",
        "143740.843000",
        "143741.897000",
        "143742.862000",
        "143743.856000",
        "143744.923000",
        "143745.869000",
        "143746.862000",
        "143747.846000",
        "143748.861000",
        "143749.863000",
        "143750.899000",
        "143751.883000",
        "143752.899000",
        "143753.889000",
        "143754.875000",
        "143755.881000",
        "143756.890000",
        "143757.851000",
        "143758.855000",
        "143759.885000",
        "143800.885000",
        "143801.914000",
        "143802.870000",
        "143803.881000",
        "143804.904000",
        "143805.871000",
        "143806.869000",
        "143807.860000",
        "143808.893000",
        "143809.865000",
        "143810.850000",
        "143811.850000",
        "143812.869000",
        "143813.862000",
        "143814.817000",
        "143815.844000",
        "143816.839000",
        "143817.864000",
        "143818.860000",
        "143819.836000",
        "143820.862000",
        "143821.857000",
        "143822.869000",
        "143823.855000",
        "143824.854000",
        "143825.873000",
        "143826.836000",
        "143827.846000",
        "143828.844000",
        "143829.847000",
        "143830.887000",
        "143831.852000",
        "143832.840000",
        "143833.849000",
        "143834.875000",
        "143835.861000",
        "143836.893000",
        "143837.854000",
        "143838.862000",
        "143839.881000",
        "143840.840000",
        "143841.901000",
        "143842.926000",
        "143843.871000",
        "143844.888000",
        "143845.849000",
        "143846.888000",
        "143847.907000",
        "143848.849000",
        "143849.854000",
        "143850.864000",
        "143851.862000",
        "143852.865000",
        "143853.852000",
        "143854.860000",
        "143855.871000",
        "143856.873000",
        "143857.857000",
        "143858.856000",
        "143859.845000",
        "143900.901000",
        "143901.859000",
        "143902.860000",
        "143903.869000",
        "143904.850000",
        "143905.868000",
        "143906.889000",
        "143907.861000",
        "143908.839000",
        "143909.840000",
        "143910.870000",
        "143911.854000",
        "143912.879000",
        "143913.846000",
        "143914.860000",
        "143915.865000",
        "143916.876000",
        "143917.894000",
        "143918.864000",
        "143919.851000",
        "143920.834000",
        "143921.880000",
        "143922.868000",
        "143923.863000",
        "143924.879000",
        "143925.912000",
        "143926.891000",
        "143927.831000",
        "143928.849000",
        "143929.850000",
        "143930.844000",
        "143931.855000",
        "143932.870000",
        "143933.852000",
        "143934.855000",
        "143935.866000",
        "143936.852000",
        "143937.851000",
        "143938.846000",
        "143939.848000",
        "143940.853000",
        "143941.876000",
        "143942.869000",
        "143943.885000",
        "143944.880000",
        "143945.873000",
        "143946.860000",
        "143947.848000",
        "143948.891000",
        "143949.895000",
        "143950.873000",
        "143951.866000",
        "143952.831000",
        "143953.852000",
        "143954.857000",
        "143955.860000",
        "143956.849000",
        "143957.860000",
        "143958.866000",
        "143959.844000",
        "144000.848000",
        "144001.859000",
        "144002.836000",
        "144003.849000",
        "144004.902000",
        "144005.859000",
        "144006.835000",
        "144007.915000",
        "144008.894000",
        "144009.889000",
        "144010.842000",
        "144011.905000",
        "144012.865000",
        "144013.862000",
        "144014.860000",
        "144015.926000",
        "144016.820000",
        "144017.891000",
        "144018.876000",
        "144019.853000",
        "144020.861000",
        "144021.922000",
        "144022.869000",
        "144023.876000"
      ],
      "InstanceNumber": [
        1,
        2,
        3,
        4,
        5,
        6,
        7,
        8,
        9,
        10,
        11,
        12,
        13,
        14,
        15,
        16,
        17,
        18,
        19,
        20,
        21,
        22,
        23,
        24,
        25,
        26,
        27,
        28,
        29,
        30,
        31,
        32,
        33,
        34,
        35,
        36,
        37,
        38,
        39,
        40,
        41,
        42,
        43,
        44,
        45,
        46,
        47,
        48,
        49,
        50,
        51,
        52,
        53,
        54,
        55,
        56,
        57,
        58,
        59,
        60,
        61,
        62,
        63,
        64,
        65,
        66,
        67,
        68,
        69,
        70,
        71,
        72,
        73,
        74,
        75,
        76,
        77,
        78,
        79,
        80,
        81,
        82,
        83,
        84,
        85,
        86,
        87,
        88,
        89,
        90,
        91,
        92,
        93,
        94,
        95,
        96,
        97,
        98,
        99,
        100,
        101,
        102,
        103,
        104,
        105,
        106,
        107,
        108,
        109,
        110,
        111,
        112,
        113,
        114,
        115,
        116,
        117,
        118,
        119,
        120,
        121,
        122,
        123,
        124,
        125,
        126,
        127,
        128,
        129,
        130,
        131,
        132,
        133,
        134,
        135,
        136,
        137,
        138,
        139,
        140,
        141,
        142,
        143,
        144,
        145,
        146,
        147,
        148,
        149,
        150,
        151,
        152,
        153,
        154,
        155,
