{
  "AcquisitionMatrixPE": 96,
  "AcquisitionNumber": 1,
  "AcquisitionTime": "18:27:41.625000",
  "BandwidthPerPixelPhaseEncode": 18.939,
  "BaseResolution": 96,
  "BodyPartExamined": "BRAIN",
  "ConsistencyInfo": "N4_VE11C_LATEST_20160120",
  "ConversionSoftware": "dcm2niix",
  "ConversionSoftwareVersion": "v1.0.20171215 (OpenJPEG build) GCC6.3.0",
  "DerivedVendorReportedEchoSpacing": 0.000550011,
  "DeviceSerialNumber": "66112",
  "DwellTime": 2.2e-06,
  "EchoTime": 0.033,
  "EchoTrainLength": 96,
  "EffectiveEchoSpacing": 0.000550011,
  "FlipAngle": 59,
  "ImageOrientationPatientDICOM": [0.997718, 0.0544669, -0.0399106, -0.0570039, 0.996226, -0.0654594],
  "ImageType": [
    "ORIGINAL",
    "PRIMARY",
    "FMRI",
    "NONE",
    "ND",
    "NORM",
    "MOSAIC"
],
  "InPlanePhaseEncodingDirectionDICOM": "COL",
  "InstitutionAddress": "Maynard_3_Hanover_NH_US_03755",
  "InstitutionName": "Dartmouth_College_-_PBS",
  "InstitutionalDepartmentName": "Department",
  "MRAcquisitionType": "2D",
  "MagneticFieldStrength": 3,
  "Manufacturer": "Siemens",
  "ManufacturersModelName": "Prisma",
  "Modality": "MR",
  "MultibandAccelerationFactor": 4,
  "PartialFourier": 1,
  "PatientPosition": "HFS",
  "PercentPhaseFOV": 100,
  "PhaseEncodingDirection": "j-",
  "PhaseEncodingSteps": 96,
  "PhaseResolution": 1,
  "PixelBandwidth": 2365,
  "ProcedureStepDescription": "Gobbini_Matteo_1038_hyperface",
  "ProtocolName": "func_run-02_task-visualmemory",
  "PulseSequenceDetails": "%SiemensSeq%_ep2d_bold",
  "ReceiveCoilActiveElements": "HEA;HEP",
  "ReceiveCoilName": "Head_32",
  "ReconMatrixPE": 96,
  "RepetitionTime": 1,
  "SAR": 0.0476379,
  "ScanOptions": "FS",
  "ScanningSequence": "EP",
  "SequenceName": "_epfid2d1_96",
  "SequenceVariant": "SK",
  "SeriesDescription": "func_run-02_task-visualmemory",
  "SeriesNumber": 15,
  "ShimSetting": [4128, -7689, -7304, 680, -4, -89, 37, 93],
  "SliceThickness": 2.5,
  "SliceTiming": [0.735, 0, 0.49, 0.0825, 0.5725, 0.1625, 0.6525, 0.3275, 0.8175, 0.4075, 0.8975, 0.245, 0.735, 0, 0.49, 0.0825, 0.5725, 0.1625, 0.6525, 0.3275, 0.8175, 0.4075, 0.8975, 0.245, 0.735, 0, 0.49, 0.0825, 0.5725, 0.1625, 0.6525, 0.3275, 0.8175, 0.4075, 0.8975, 0.245, 0.735, 0, 0.49, 0.0825, 0.5725, 0.1625, 0.6525, 0.3275, 0.8175, 0.4075, 0.8975, 0.245],
  "SoftwareVersions": "syngo_MR_E11",
  "SpacingBetweenSlices": 2.5,
  "StationName": "AWP66112",
  "TotalReadoutTime": 0.0522511,
  "TxRefAmp": 257.943,
  "dcmmeta_affine": [
    [-2.4942941665649414, -0.1425098180770874, -0.09048642218112946, 134.5462646484375],
    [-0.13616719841957092, 2.4905641078948975, -0.16896259784698486, -98.85813903808594],
    [-0.09977642446756363, 0.16364844143390656, 2.4926419258117676, -83.12103271484375],
    [0.0, 0.0, 0.0, 1.0]
],
  "dcmmeta_reorient_transform": [
    [0.0, -1.0, 0.0, 95.0],
    [1.0, 0.0, 0.0, 0.0],
    [0.0, 0.0, 1.0, 0.0],
    [0.0, 0.0, 0.0, 1.0]
],
  "dcmmeta_shape": [96, 96, 48, 288],
  "dcmmeta_slice_dim": 2,
  "dcmmeta_version": 0.6,
  "global": {
    "const": {
      "AccessionNumber": "A001343",
      "AcquisitionMatrix": [96, 0, 0, 96],
      "AngioFlag": "N",
      "BitsAllocated": 16,
      "BitsStored": 12,
      "BodyPartExamined": "BRAIN",
      "Columns": 672,
      "EchoNumbers": 1,
      "EchoTime": 33.0,
      "EchoTrainLength": 96,
      "FlipAngle": 59.0,
      "HighBit": 11,
      "ImageOrientationPatient": [0.99771764816086, 0.05446687900033, -0.0399105705337, -0.0570039282058, 0.99622568821042, -0.0654593791505],
      "ImagePositionPatient": [-798.32171046931, -894.24411092633, 8.291931440839],
      "ImageType": [
        "ORIGINAL",
        "PRIMARY",
        "FMRI",
        "NONE",
        "ND",
        "NORM",
        "MOSAIC"
],
      "ImagedNucleus": "1H",
      "ImagingFrequency": 123.252325,
      "InPlanePhaseEncodingDirection": "COL",
      "MRAcquisitionType": "2D",
      "MagneticFieldStrength": 3.0,
      "Manufacturer": "SIEMENS",
      "ManufacturerModelName": "Prisma",
      "Modality": "MR",
      "NumberOfAverages": 1.0,
      "NumberOfPhaseEncodingSteps": 96,
      "PercentPhaseFieldOfView": 100.0,
      "PercentSampling": 100.0,
      "PerformedProcedureStepStartTime": "181056.555000",
      "PhotometricInterpretation": "MONOCHROME2",
      "PixelBandwidth": 2365.0,
      "PixelRepresentation": 0,
      "PixelSpacing": [2.5, 2.5],
      "PositionReferenceIndicator": "",
      "ProtocolName": "func_run-02_task-visualmemory",
      "RepetitionTime": 1000.0,
      "Rows": 672,
      "SAR": 0.04763790673111,
      "SamplesPerPixel": 1,
      "ScanOptions": "FS",
      "ScanningSequence": "EP",
      "SequenceName": "*epfid2d1_96",
      "SequenceVariant": "SK",
      "SeriesDescription": "func_run-02_task-visualmemory",
      "SeriesNumber": 15,
      "SeriesTime": "182742.463000",
      "SliceLocation": -81.064904036985,
      "SliceThickness": 2.5,
      "SmallestImagePixelValue": 0,
      "SoftwareVersions": "syngo MR E11",
      "SpacingBetweenSlices": 2.5000000743965,
      "SpecificCharacterSet": "ISO_IR 100",
      "StudyID": "2",
      "StudyTime": "181056.504000",
      "TransmitCoilName": "Body",
      "VariableFlipAngleFlag": "N",
      "WindowCenterWidthExplanation": "Algo1",
      "dBdt": 0.0},
    "slices": {}
  },
  "time": {
    "samples": {
      "AcquisitionNumber": [1, 2, 3, 4, 5, 6, 7, 8, 9, 10, 11, 12, 13, 14, 15, 16, 17, 18, 19, 20, 21, 22, 23, 24, 25, 26, 27, 28, 29, 30, 31, 32, 33, 34, 35, 36, 37, 38, 39, 40, 41, 42, 43, 44, 45, 46, 47, 48, 49, 50, 51, 52, 53, 54, 55, 56, 57, 58, 59, 60, 61, 62, 63, 64, 65, 66, 67, 68, 69, 70, 71, 72, 73, 74, 75, 76, 77, 78, 79, 80, 81, 82, 83, 84, 85, 86, 87, 88, 89, 90, 91, 92, 93, 94, 95, 96, 97, 98, 99, 100, 101, 102, 103, 104, 105, 106, 107, 108, 109, 110, 111, 112, 113, 114, 115, 116, 117, 118, 119, 120, 121, 122, 123, 124, 125, 126, 127, 128, 129, 130, 131, 132, 133, 134, 135, 136, 137, 138, 139, 140, 141, 142, 143, 144, 145, 146, 147, 148, 149, 150, 151, 152, 153, 154, 155, 156, 157, 158, 159, 160, 161, 162, 163, 164, 165, 166, 167, 168, 169, 170, 171, 172, 173, 174, 175, 176, 177, 178, 179, 180, 181, 182, 183, 184, 185, 186, 187, 188, 189, 190, 191, 192, 193, 194, 195, 196, 197, 198, 199, 200, 201, 202, 203, 204, 205, 206, 207, 208, 209, 210, 211, 212, 213, 214, 215, 216, 217, 218, 219, 220, 221, 222, 223, 224, 225, 226, 227, 228, 229, 230, 231, 232, 233, 234, 235, 236, 237, 238, 239, 240, 241, 242, 243, 244, 245, 246, 247, 248, 249, 250, 251, 252, 253, 254, 255, 256, 257, 258, 259, 260, 261, 262, 263, 264, 265, 266, 267, 268, 269, 270, 271, 272, 273, 274, 275, 276, 277, 278, 279, 280, 281, 282, 283, 284, 285, 286, 287, 288],
      "AcquisitionTime": ["182741.625000", "182742.625000", "182743.625000", "182744.625000", "182745.625000", "182746.625000", "182747.625000", "182748.625000", "182749.625000", "182750.625000", "182751.625000", "182752.625000", "182753.625000", "182754.625000", "182755.625000", "182756.625000", "182757.625000", "182758.625000", "182759.625000", "182800.625000", "182801.625000", "182802.625000", "182803.625000", "182804.625000", "182805.625000", "182806.625000", "182807.625000", "182808.625000", "182809.625000", "182810.625000", "182811.625000", "182812.625000", "182813.625000", "182814.625000", "182815.625000", "182816.625000", "182817.625000", "182818.625000", "182819.625000", "182820.625000", "182821.625000", "182822.625000", "182823.625000", "182824.625000", "182825.625000", "182826.625000", "182827.625000", "182828.625000", "182829.625000", "182830.625000", "182831.625000", "182832.625000", "182833.625000", "182834.625000", "182835.625000", "182836.625000", "182837.625000", "182838.625000", "182839.625000", "182840.625000", "182841.625000", "182842.625000", "182843.625000", "182844.625000", "182845.625000", "182846.625000", "182847.625000", "182848.625000", "182849.625000", "182850.625000", "182851.625000", "182852.625000", "182853.625000", "182854.625000", "182855.625000", "182856.625000", "182857.625000", "182858.625000", "182859.625000", "182900.625000", "182901.625000", "182902.625000", "182903.625000", "182904.625000", "182905.625000", "182906.625000", "182907.625000", "182908.625000", "182909.625000", "182910.625000", "182911.625000", "182912.625000", "182913.625000", "182914.625000", "182915.625000", "182916.625000", "182917.625000", "182918.625000", "182919.625000", "182920.625000", "182921.625000", "182922.625000", "182923.625000", "182924.625000", "182925.625000", "182926.625000", "182927.625000", "182928.625000", "182929.625000", "182930.625000", "182931.625000", "182932.625000", "182933.625000", "182934.625000", "182935.625000", "182936.625000", "182937.625000", "182938.625000", "182939.625000", "182940.625000", "182941.625000", "182942.625000", "182943.625000", "182944.625000", "182945.625000", "182946.625000", "182947.625000", "182948.625000", "182949.625000", "182950.625000", "182951.625000", "182952.625000", "182953.625000", "182954.625000", "182955.625000", "182956.625000", "182957.625000", "182958.625000", "182959.625000", "183000.625000", "183001.625000", "183002.625000", "183003.625000", "183004.625000", "183005.625000", "183006.625000", "183007.625000", "183008.625000", "183009.625000", "183010.625000", "183011.625000", "183012.625000", "183013.625000", "183014.625000", "183015.625000", "183016.625000", "183017.625000", "183018.625000", "183019.625000", "183020.625000", "183021.625000", "183022.625000", "183023.625000", "183024.625000", "183025.625000", "183026.625000", "183027.625000", "183028.625000", "183029.625000", "183030.625000", "183031.625000", "183032.625000", "183033.625000", "183034.625000", "183035.625000", "183036.625000", "183037.625000", "183038.625000", "183039.625000", "183040.625000", "183041.625000", "183042.625000", "183043.625000", "183044.625000", "183045.625000", "183046.625000", "183047.625000", "183048.625000", "183049.625000", "183050.625000", "183051.625000", "183052.625000", "183053.625000", "183054.625000", "183055.625000", "183056.625000", "183057.625000", "183058.625000", "183059.625000", "183100.625000", "183101.625000", "183102.625000", "183103.625000", "183104.625000", "183105.625000", "183106.625000", "183107.625000", "183108.625000", "183109.625000", "183110.625000", "183111.625000", "183112.625000", "183113.625000", "183114.625000", "183115.625000", "183116.625000", "183117.625000", "183118.625000", "183119.625000", "183120.625000", "183121.625000", "183122.625000", "183123.625000", "183124.625000", "183125.625000", "183126.625000", "183127.625000", "183128.625000", "183129.625000", "183130.625000", "183131.625000", "183132.625000", "183133.625000", "183134.625000", "183135.625000", "183136.625000", "183137.625000", "183138.625000", "183139.625000", "183140.625000", "183141.625000", "183142.625000", "183143.625000", "183144.625000", "183145.625000", "183146.625000", "183147.625000", "183148.625000", "183149.625000", "183150.625000", "183151.625000", "183152.625000", "183153.625000", "183154.625000", "183155.625000", "183156.625000", "183157.625000", "183158.625000", "183159.625000", "183200.625000", "183201.625000", "183202.625000", "183203.625000", "183204.625000", "183205.625000", "183206.625000", "183207.625000", "183208.625000", "183209.625000", "183210.625000", "183211.625000", "183212.625000", "183213.625000", "183214.625000", "183215.625000", "183216.625000", "183217.625000", "183218.625000", "183219.625000", "183220.625000", "183221.625000", "183222.625000", "183223.625000", "183224.625000", "183225.625000", "183226.625000", "183227.625000", "183228.625000"],
      "ContentTime": ["182742.467000", "182743.321000", "182744.323000", "182745.286000", "182746.275000", "182747.306000", "182748.263000", "182749.359000", "182750.277000", "182751.304000", "182752.288000", "182753.313000", "182754.282000", "182755.265000", "182756.354000", "182757.303000", "182758.267000", "182759.309000", "182800.296000", "182801.275000", "182802.292000", "182803.296000", "182804.289000", "182805.290000", "182806.297000", "182807.276000", "182808.285000", "182809.286000", "182810.292000", "182811.290000", "182812.289000", "182813.304000", "182814.302000", "182815.290000", "182816.288000", "182817.297000", "182818.262000", "182819.295000", "182820.285000", "182821.285000", "182822.285000", "182823.253000", "182824.256000", "182825.288000", "182826.327000", "182827.282000", "182828.365000", "182829.283000", "182830.282000", "182831.267000", "182832.283000", "182833.280000", "182834.286000", "182835.256000", "182836.308000", "182837.273000", "182838.284000", "182839.271000", "182840.300000", "182841.299000", "182842.295000", "182843.276000", "182844.286000", "182845.319000", "182846.312000", "182847.283000", "182848.287000", "182849.307000", "182850.295000", "182851.318000", "182852.266000", "182853.276000", "182854.283000", "182855.281000", "182856.275000", "182857.302000", "182858.312000", "182859.296000", "182900.267000", "182901.285000", "182902.282000", "182903.285000", "182904.373000", "182905.276000", "182906.308000", "182907.291000", "182908.316000", "182909.272000", "182910.273000", "182911.330000", "182912.305000", "182913.283000", "182914.272000", "182915.271000", "182916.284000", "182917.294000", "182918.266000", "182919.279000", "182920.295000", "182921.276000", "182922.285000", "182923.322000", "182924.283000", "182925.285000", "182926.300000", "182927.296000", "182928.290000", "182929.299000", "182930.292000", "182931.285000", "182932.294000", "182933.294000", "182934.294000", "182935.288000", "182936.304000", "182937.307000", "182938.279000", "182939.267000", "182940.268000", "182941.305000", "182942.297000", "182943.310000", "182944.336000", "182945.285000", "182946.319000", "182947.276000", "182948.290000", "182949.328000", "182950.269000", "182951.312000", "182952.267000", "182953.311000", "182954.329000", "182955.276000", "182956.286000", "182957.293000", "182958.303000", "182959.300000", "183000.274000", "183001.349000", "183002.308000", "183003.303000", "183004.309000", "183005.284000", "183006.312000", "183007.297000", "183008.358000", "183009.275000", "183010.322000", "183011.296000", "183012.306000", "183013.273000", "183014.317000", "183015.302000", "183016.303000", "183017.288000", "183018.246000", "183019.323000", "183020.310000", "183021.284000", "183022.295000", "183023.288000", "183024.290000", "183025.280000", "183026.307000", "183027.315000", "183028.285000", "183029.316000", "183030.280000", "183031.291000", "183032.316000", "183033.324000", "183034.290000", "183035.365000", "183036.297000", "183037.296000", "183038.297000", "183039.300000", "183040.261000", "183041.297000", "183042.299000", "183043.290000", "183044.278000", "183045.341000", "183046.260000", "183047.290000", "183048.282000", "183049.291000", "183050.308000", "183051.283000", "183052.292000", "183053.271000", "183054.283000", "183055.303000", "183056.276000", "183057.280000", "183058.297000", "183059.291000", "183100.312000", "183101.285000", "183102.291000", "183103.325000", "183104.306000", "183105.295000", "183106.286000", "183107.302000", "183108.334000", "183109.279000", "183110.287000", "183111.300000", "183112.281000", "183113.298000", "183114.319000", "183115.302000", "183116.290000", "183117.288000", "183118.274000", "183119.303000", "183120.245000", "183121.292000", "183122.276000", "183123.282000", "183124.286000", "183125.301000", "183126.298000", "183127.276000", "183128.306000", "183129.286000", "183130.282000", "183131.292000", "183132.268000", "183133.293000", "183134.278000", "183135.253000", "183136.301000", "183137.304000", "183138.295000", "183139.298000", "183140.314000", "183141.310000", "183142.287000", "183143.295000", "183144.285000", "183145.312000", "183146.288000", "183147.268000", "183148.349000", "183149.293000", "183150.298000", "183151.278000", "183152.298000", "183153.298000", "183154.299000", "183155.279000", "183156.290000", "183157.266000", "183158.296000", "183159.311000", "183200.267000", "183201.290000", "183202.285000", "183203.292000", "183204.292000", "183205.300000", "183206.289000", "183207.277000", "183208.298000", "183209.266000", "183210.302000", "183211.275000", "183212.269000", "183213.308000", "183214.315000", "183215.319000", "183216.309000", "183217.285000", "183218.299000", "183219.282000", "183220.278000", "183221.295000", "183222.296000", "183223.285000", "183224.288000", "183225.319000", "183226.303000", "183227.277000", "183228.270000", "183229.329000"],
      "InstanceCreationTime": ["182742.467000", "182743.321000", "182744.323000", "182745.286000", "182746.275000", "182747.306000", "182748.263000", "182749.359000", "182750.277000", "182751.304000", "182752.288000", "182753.313000", "182754.282000", "182755.265000", "182756.354000", "182757.303000", "182758.267000", "182759.309000", "182800.296000", "182801.275000", "182802.292000", "182803.296000", "182804.289000", "182805.290000", "182806.297000", "182807.276000", "182808.285000", "182809.286000", "182810.292000", "182811.290000", "182812.289000", "182813.304000", "182814.302000", "182815.290000", "182816.288000", "182817.297000", "182818.262000", "182819.295000", "182820.285000", "182821.285000", "182822.285000", "182823.253000", "182824.256000", "182825.288000", "182826.327000", "182827.282000", "182828.365000", "182829.283000", "182830.282000", "182831.267000", "182832.283000", "182833.280000", "182834.286000", "182835.256000", "182836.308000", "182837.273000", "182838.284000", "182839.271000", "182840.300000", "182841.299000", "182842.295000", "182843.276000", "182844.286000", "182845.319000", "182846.312000", "182847.283000", "182848.287000", "182849.307000", "182850.295000", "182851.318000", "182852.266000", "182853.276000", "182854.283000", "182855.281000", "182856.275000", "182857.302000", "182858.312000", "182859.296000", "182900.267000", "182901.285000", "182902.282000", "182903.285000", "182904.373000", "182905.276000", "182906.308000", "182907.291000", "182908.316000", "182909.272000", "182910.273000", "182911.330000", "182912.305000", "182913.283000", "182914.272000", "182915.271000", "182916.284000", "182917.294000", "182918.266000", "182919.279000", "182920.295000", "182921.276000", "182922.285000", "182923.322000", "182924.283000", "182925.285000", "182926.300000", "182927.296000", "182928.290000", "182929.299000", "182930.292000", "182931.285000", "182932.294000", "182933.294000", "182934.294000", "182935.288000", "182936.304000", "182937.307000", "182938.279000", "182939.267000", "182940.268000", "182941.305000", "182942.297000", "182943.310000", "182944.336000", "182945.285000", "182946.319000", "182947.276000", "182948.290000", "182949.328000", "182950.269000", "182951.312000", "182952.267000", "182953.311000", "182954.329000", "182955.276000", "182956.286000", "182957.293000", "182958.303000", "182959.300000", "183000.274000", "183001.349000", "183002.308000", "183003.303000", "183004.309000", "183005.284000", "183006.312000", "183007.297000", "183008.358000", "183009.275000", "183010.322000", "183011.296000", "183012.306000", "183013.273000", "183014.317000", "183015.302000", "183016.303000", "183017.288000", "183018.246000", "183019.323000", "183020.310000", "183021.284000", "183022.295000", "183023.288000", "183024.290000", "183025.280000", "183026.307000", "183027.315000", "183028.285000", "183029.316000", "183030.280000", "183031.291000", "183032.316000", "183033.324000", "183034.290000", "183035.365000", "183036.297000", "183037.296000", "183038.297000", "183039.300000", "183040.261000", "183041.297000", "183042.299000", "183043.290000", "183044.278000", "183045.341000", "183046.260000", "183047.290000", "183048.282000", "183049.291000", "183050.308000", "183051.283000", "183052.292000", "183053.271000", "183054.283000", "183055.303000", "183056.276000", "183057.280000", "183058.297000", "183059.291000", "183100.312000", "183101.285000", "183102.291000", "183103.325000", "183104.306000", "183105.295000", "183106.286000", "183107.302000", "183108.334000", "183109.279000", "183110.287000", "183111.300000", "183112.281000", "183113.298000", "183114.319000", "183115.302000", "183116.290000", "183117.288000", "183118.274000", "183119.303000", "183120.245000", "183121.292000", "183122.276000", "183123.282000", "183124.286000", "183125.301000", "183126.298000", "183127.276000", "183128.306000", "183129.286000", "183130.282000", "183131.292000", "183132.268000", "183133.293000", "183134.278000", "183135.253000", "183136.301000", "183137.304000", "183138.295000", "183139.298000", "183140.314000", "183141.310000", "183142.287000", "183143.295000", "183144.285000", "183145.312000", "183146.288000", "183147.268000", "183148.349000", "183149.293000", "183150.298000", "183151.278000", "183152.298000", "183153.298000", "183154.299000", "183155.279000", "183156.290000", "183157.266000", "183158.296000", "183159.311000", "183200.267000", "183201.290000", "183202.285000", "183203.292000", "183204.292000", "183205.300000", "183206.289000", "183207.277000", "183208.298000", "183209.266000", "183210.302000", "183211.275000", "183212.269000", "183213.308000", "183214.315000", "183215.319000", "183216.309000", "183217.285000", "183218.299000", "183219.282000", "183220.278000", "183221.295000", "183222.296000", "183223.285000", "183224.288000", "183225.319000", "183226.303000", "183227.277000", "183228.270000", "183229.329000"],
      "InstanceNumber": [1, 2, 3, 4, 5, 6, 7, 8, 9, 10, 11, 12, 13, 14, 15, 16, 17, 18, 19, 20, 21, 22, 23, 24, 25, 26, 27, 28, 29, 30, 31, 32, 33, 34, 35, 36, 37, 38, 39, 40, 41, 42, 43, 44, 45, 46, 47, 48, 49, 50, 51, 52, 53, 54, 55, 56, 57, 58, 59, 60, 61, 62, 63, 64, 65, 66, 67, 68, 69, 70, 71, 72, 73, 74, 75, 76, 77, 78, 79, 80, 81, 82, 83, 84, 85, 86, 87, 88, 89, 90, 91, 92, 93, 94, 95, 96, 97, 98, 99, 100, 101, 102, 103, 104, 105, 106, 107, 108, 109, 110, 111, 112, 113, 114, 115, 116, 117, 118, 119, 120, 121, 122, 123, 124, 125, 126, 127, 128, 129, 130, 131, 132, 133, 134, 135, 136, 137, 138, 139, 140, 141, 142, 143, 144, 145, 146, 147, 148, 149, 150, 151, 152, 153, 154, 155, 156, 157, 158, 159, 160, 161, 162, 163, 164, 165, 166, 167, 168, 169, 170, 171, 172, 173, 174, 175, 176, 177, 178, 179, 180, 181, 182, 183, 184, 185, 186, 187, 188, 189, 190, 191, 192, 193, 194, 195, 196, 197, 198, 199, 200, 201, 202, 203, 204, 205, 206, 207, 208, 209, 210, 211, 212, 213, 214, 215, 216, 217, 218, 219, 220, 221, 222, 223, 224, 225, 226, 227, 228, 229, 230, 231, 232, 233, 234, 235, 236, 237, 238, 239, 240, 241, 242, 243, 244, 245, 246, 247, 248, 249, 250, 251, 252, 253, 254, 255, 256, 257, 258, 259, 260, 261, 262, 263, 264, 265, 266, 267, 268, 269, 270, 271, 272, 273, 274, 275, 276, 277, 278, 279, 280, 281, 282, 283, 284, 285, 286, 287, 288],
      "LargestImagePixelValue": [1541, 1536, 1241, 1236, 894, 826, 1215, 961, 1573, 1474, 1043, 1361, 1483, 953, 786, 1012, 1173, 903, 792, 972, 1081, 875, 828, 1176, 1174, 884, 822, 1132, 1165, 1056, 1027, 1204, 995, 1121, 1496, 1572, 912, 950, 913, 1260, 1220, 853, 751, 1092, 1332, 1038, 1049, 1447, 1227, 1062, 1010, 1188, 921, 1089, 1348, 1112, 802, 1093, 1265, 943, 800, 1234, 1277, 833, 968, 1472, 1243, 881, 906, 1215, 995, 816, 976, 1192, 866, 791, 948, 1178, 1076, 1355, 1298, 1268, 961, 1043, 1272, 1290, 1002, 846, 1043, 1067, 949, 920, 1290, 1163, 980, 999, 1551, 1185, 864, 950, 1287, 1107, 823, 1079, 1569, 974, 938, 1088, 1440, 873, 826, 1116, 1489, 903, 850, 1174, 1511, 939, 799, 939, 1153, 1028, 1161, 1355, 1167, 957, 1428, 1035, 845, 1056, 1357, 836, 811, 957, 1086, 781, 986, 1322, 959, 905, 1234, 1228, 837, 942, 1173, 797, 885, 1349, 1363, 813, 1180, 1628, 953, 866, 1060, 1174, 810, 841, 1154, 871, 814, 1161, 1470, 1049, 950, 1338, 1419, 1186, 963, 1120, 917, 1051, 984, 1044, 840, 963, 1127, 1145, 860, 786, 1153, 1097, 832, 1264, 1630, 1217, 873, 1131, 1220, 858, 862, 976, 837, 933, 924, 1063, 1071, 1083, 854, 1166, 1220, 1117, 972, 1135, 986, 1102, 1111, 909, 926, 1126, 1068, 801, 1092, 1141, 931, 953, 1235, 1435, 935, 898, 1247, 1398, 815, 870, 1353, 1070, 889, 903, 1424, 988, 945, 1214, 1654, 1023, 964, 1030, 1484, 882, 832, 1105, 1388, 929, 810, 1062, 1204, 1059, 810, 977, 1155, 831, 755, 901, 1050, 1082, 1383, 1178, 1061, 1232, 1654, 973, 878, 1353, 910, 894, 834, 1090, 1096, 1216, 1516, 1136, 1208, 1481, 1104, 994, 1116, 960, 939, 890, 1023, 757, 1097, 1351, 849, 1023, 1403, 922, 746, 1136],
      "WindowCenter": [399.0, 398.0, 397.0, 396.0, 394.0, 394.0, 395.0, 394.0, 397.0, 397.0, 393.0, 395.0, 394.0, 392.0, 391.0, 393.0, 394.0, 393.0, 393.0, 394.0, 395.0, 394.0, 393.0, 396.0, 395.0, 393.0, 393.0, 396.0, 396.0, 395.0, 395.0, 397.0, 395.0, 396.0, 397.0, 397.0, 393.0, 394.0, 393.0, 395.0, 395.0, 394.0, 394.0, 396.0, 398.0, 396.0, 395.0, 397.0, 395.0, 394.0, 394.0, 395.0, 394.0, 394.0, 396.0, 395.0, 393.0, 395.0, 395.0, 394.0, 393.0, 396.0, 396.0, 393.0, 394.0, 397.0, 396.0, 393.0, 393.0, 395.0, 394.0, 393.0, 394.0, 395.0, 394.0, 393.0, 395.0, 397.0, 396.0, 398.0, 397.0, 396.0, 394.0, 394.0, 396.0, 396.0, 394.0, 394.0, 395.0, 395.0, 395.0, 394.0, 396.0, 396.0, 394.0, 395.0, 397.0, 395.0, 393.0, 394.0, 396.0, 395.0, 393.0, 394.0, 397.0, 394.0, 394.0, 394.0, 396.0, 393.0, 392.0, 394.0, 396.0, 393.0, 393.0, 395.0, 396.0, 393.0, 393.0, 395.0, 396.0, 395.0, 396.0, 397.0, 395.0, 394.0, 396.0, 394.0, 393.0, 394.0, 396.0, 393.0, 393.0, 395.0, 396.0, 394.0, 395.0, 397.0, 395.0, 394.0, 396.0, 396.0, 394.0, 395.0, 396.0, 394.0, 395.0, 398.0, 397.0, 393.0, 396.0, 397.0, 394.0, 393.0, 395.0, 396.0, 393.0, 393.0, 396.0, 395.0, 394.0, 396.0, 398.0, 395.0, 395.0, 396.0, 397.0, 395.0, 394.0, 394.0, 393.0, 394.0, 394.0, 394.0, 392.0, 394.0, 395.0, 395.0, 393.0, 393.0, 396.0, 397.0, 395.0, 397.0, 398.0, 396.0, 394.0, 395.0, 395.0, 393.0, 393.0, 394.0, 393.0, 394.0, 394.0, 395.0, 395.0, 395.0, 394.0, 396.0, 396.0, 395.0, 394.0, 395.0, 394.0, 394.0, 395.0, 393.0, 393.0, 395.0, 395.0, 393.0, 395.0, 396.0, 395.0, 395.0, 396.0, 397.0, 394.0, 393.0, 396.0, 396.0, 393.0, 393.0, 396.0, 395.0, 394.0, 394.0, 397.0, 394.0, 394.0, 396.0, 397.0, 394.0, 393.0, 394.0, 397.0, 394.0, 393.0, 395.0, 396.0, 394.0, 393.0, 394.0, 395.0, 394.0, 393.0, 394.0, 395.0, 393.0, 394.0, 396.0, 397.0, 397.0, 398.0, 397.0, 395.0, 396.0, 398.0, 395.0, 394.0, 397.0, 395.0, 395.0, 395.0, 398.0, 398.0, 398.0, 399.0, 396.0, 396.0, 397.0, 395.0, 394.0, 395.0, 394.0, 394.0, 394.0, 395.0, 394.0, 396.0, 397.0, 394.0, 395.0, 397.0, 394.0, 393.0, 396.0],
      "WindowWidth": [843.0, 840.0, 840.0, 838.0, 835.0, 834.0, 836.0, 835.0, 838.0, 839.0, 833.0, 835.0, 834.0, 831.0, 829.0, 832.0, 834.0, 833.0, 832.0, 835.0, 836.0, 834.0, 834.0, 837.0, 836.0, 834.0, 834.0, 837.0, 837.0, 837.0, 836.0, 838.0, 836.0, 837.0, 838.0, 838.0, 833.0, 834.0, 833.0, 836.0, 836.0, 835.0, 834.0, 838.0, 840.0, 837.0, 836.0, 838.0, 836.0, 835.0, 834.0, 835.0, 834.0, 835.0, 837.0, 836.0, 833.0, 836.0, 836.0, 834.0, 833.0, 837.0, 838.0, 834.0, 834.0, 838.0, 837.0, 833.0, 833.0, 835.0, 834.0, 832.0, 834.0, 836.0, 834.0, 834.0, 836.0, 839.0, 838.0, 840.0, 839.0, 838.0, 835.0, 835.0, 838.0, 837.0, 835.0, 834.0, 836.0, 836.0, 835.0, 835.0, 838.0, 837.0, 834.0, 835.0, 838.0, 836.0, 834.0, 834.0, 838.0, 836.0, 832.0, 835.0, 839.0, 834.0, 834.0, 835.0, 838.0, 833.0, 832.0, 835.0, 838.0, 833.0, 832.0, 835.0, 837.0, 833.0, 833.0, 836.0, 837.0, 837.0, 837.0, 839.0, 837.0, 834.0, 837.0, 835.0, 832.0, 835.0, 838.0, 833.0, 833.0, 835.0, 837.0, 834.0, 837.0, 839.0, 836.0, 835.0, 838.0, 838.0, 834.0, 836.0, 838.0, 836.0, 836.0, 840.0, 840.0, 834.0, 837.0, 840.0, 835.0, 833.0, 835.0, 837.0, 833.0, 834.0, 837.0, 836.0, 836.0, 838.0, 841.0, 837.0, 836.0, 838.0, 839.0, 836.0, 834.0, 835.0, 833.0, 835.0, 834.0, 835.0, 832.0, 834.0, 836.0, 836.0, 833.0, 833.0, 838.0, 839.0, 836.0, 839.0, 841.0, 837.0, 834.0, 836.0, 836.0, 833.0, 832.0, 834.0, 833.0, 835.0, 835.0, 836.0, 836.0, 837.0, 835.0, 837.0, 837.0, 836.0, 835.0, 836.0, 834.0, 835.0, 836.0, 833.0, 834.0, 836.0, 835.0, 833.0, 836.0, 837.0, 836.0, 836.0, 838.0, 839.0, 835.0, 834.0, 837.0, 837.0, 833.0, 834.0, 837.0, 836.0, 835.0, 835.0, 839.0, 835.0, 835.0, 837.0, 839.0, 834.0, 833.0, 834.0, 838.0, 834.0, 833.0, 836.0, 838.0, 834.0, 833.0, 835.0, 837.0, 835.0, 833.0, 834.0, 836.0, 834.0, 835.0, 838.0, 839.0, 840.0, 840.0, 839.0, 837.0, 838.0, 841.0, 836.0, 835.0, 840.0, 836.0, 837.0, 837.0, 840.0, 841.0, 841.0, 842.0, 839.0, 837.0, 839.0, 836.0, 834.0, 836.0, 834.0, 834.0, 835.0, 836.0, 835.0, 838.0, 839.0, 834.0, 835.0, 839.0, 835.0, 834.0, 838.0]
    },
    "slices": {}
  }
}