{
  "AcquisitionMatrixPE": 96,
  "AcquisitionNumber": 1,
  "AcquisitionTime": "18:33:9.387500",
  "BandwidthPerPixelPhaseEncode": 18.939,
  "BaseResolution": 96,
  "BodyPartExamined": "BRAIN",
  "ConsistencyInfo": "N4_VE11C_LATEST_20160120",
  "ConversionSoftware": "dcm2niix",
  "ConversionSoftwareVersion": "v1.0.20171215 (OpenJPEG build) GCC6.3.0",
  "DerivedVendorReportedEchoSpacing": 0.000550011,
  "DeviceSerialNumber": "66112",
  "DwellTime": 2.2e-06,
  "EchoTime": 0.033,
  "EchoTrainLength": 96,
  "EffectiveEchoSpacing": 0.000550011,
  "FlipAngle": 59,
  "ImageOrientationPatientDICOM": [
    0.997718,
    0.0544669,
    -0.0399106,
    -0.0570039,
    0.996226,
    -0.0654594
  ],
  "ImageType": [
    "ORIGINAL",
    "PRIMARY",
    "FMRI",
    "NONE",
    "ND",
    "NORM",
    "MOSAIC"
  ],
  "InPlanePhaseEncodingDirectionDICOM": "COL",
  "InstitutionAddress": "Maynard_3_Hanover_NH_US_03755",
  "InstitutionName": "Dartmouth_College_-_PBS",
  "InstitutionalDepartmentName": "Department",
  "MRAcquisitionType": "2D",
  "MagneticFieldStrength": 3,
  "Manufacturer": "Siemens",
  "ManufacturersModelName": "Prisma",
  "Modality": "MR",
  "MultibandAccelerationFactor": 4,
  "PatientPosition": "HFS",
  "PercentPhaseFOV": 100,
  "PhaseEncodingDirection": "j-",
  "PhaseEncodingSteps": 96,
  "PhaseResolution": 1,
  "PixelBandwidth": 2365,
  "ProcedureStepDescription": "Gobbini_Matteo_1038_hyperface",
  "ProtocolName": "func_run-03_task-visualmemory",
  "PulseSequenceDetails": "%SiemensSeq%_ep2d_bold",
  "ReceiveCoilActiveElements": "HEA;HEP",
  "ReceiveCoilName": "Head_32",
  "ReconMatrixPE": 96,
  "RepetitionTime": 1,
  "SAR": 0.0476379,
  "ScanOptions": "FS",
  "ScanningSequence": "EP",
  "SequenceName": "_epfid2d1_96",
  "SequenceVariant": "SK",
  "SeriesDescription": "func_run-03_task-visualmemory",
  "SeriesNumber": 22,
  "ShimSetting": [
    4128,
    -7689,
    -7304,
    680,
    -4,
    -89,
    37,
    93
  ],
  "SliceThickness": 2.5,
  "SliceTiming": [
    0.735,
    0,
    0.49,
    0.0825,
    0.5725,
    0.165,
    0.6525,
    0.3275,
    0.8175,
    0.41,
    0.8975,
    0.245,
    0.735,
    0,
    0.49,
    0.0825,
    0.5725,
    0.165,
    0.6525,
    0.3275,
    0.8175,
    0.41,
    0.8975,
    0.245,
    0.735,
    0,
    0.49,
    0.0825,
    0.5725,
    0.165,
    0.6525,
    0.3275,
    0.8175,
    0.41,
    0.8975,
    0.245,
    0.735,
    0,
    0.49,
    0.0825,
    0.5725,
    0.165,
    0.6525,
    0.3275,
    0.8175,
    0.41,
    0.8975,
    0.245
  ],
  "SoftwareVersions": "syngo_MR_E11",
  "SpacingBetweenSlices": 2.5,
  "StationName": "AWP66112",
  "TotalReadoutTime": 0.0522511,
  "TxRefAmp": 257.943,
  "dcmmeta_affine": [
    [
      -2.4942941665649414,
      -0.1425098180770874,
      -0.09048642218112946,
      134.5462646484375
    ],
    [
      -0.13616719841957092,
      2.4905641078948975,
      -0.16896259784698486,
      -98.85813903808594
    ],
    [
      -0.09977642446756363,
      0.16364844143390656,
      2.4926419258117676,
      -83.12103271484375
    ],
    [
      0.0,
      0.0,
      0.0,
      1.0
    ]
  ],
  "dcmmeta_reorient_transform": [
    [
      0.0,
      -1.0,
      0.0,
      95.0
    ],
    [
      1.0,
      0.0,
      0.0,
      0.0
    ],
    [
      0.0,
      0.0,
      1.0,
      0.0
    ],
    [
      0.0,
      0.0,
      0.0,
      1.0
    ]
  ],
  "dcmmeta_shape": [
    96,
    96,
    48,
    288
  ],
  "dcmmeta_slice_dim": 2,
  "dcmmeta_version": 0.6,
  "global": {
    "const": {
      "AccessionNumber": "A001343",
      "AcquisitionMatrix": [
        96,
        0,
        0,
        96
      ],
      "AngioFlag": "N",
      "BitsAllocated": 16,
      "BitsStored": 12,
      "BodyPartExamined": "BRAIN",
      "Columns": 672,
      "EchoNumbers": 1,
      "EchoTime": 33.0,
      "EchoTrainLength": 96,
      "FlipAngle": 59.0,
      "HighBit": 11,
      "ImageOrientationPatient": [
        0.99771764816086,
        0.05446687900033,
        -0.0399105705337,
        -0.0570039282058,
        0.99622568821042,
        -0.0654593791505
      ],
      "ImagePositionPatient": [
        -798.32171046931,
        -894.24411092633,
        8.291931440839
      ],
      "ImageType": [
        "ORIGINAL",
        "PRIMARY",
        "FMRI",
        "NONE",
        "ND",
        "NORM",
        "MOSAIC"
      ],
      "ImagedNucleus": "1H",
      "ImagingFrequency": 123.252326,
      "InPlanePhaseEncodingDirection": "COL",
      "MRAcquisitionType": "2D",
      "MagneticFieldStrength": 3.0,
      "Manufacturer": "SIEMENS",
      "ManufacturerModelName": "Prisma",
      "Modality": "MR",
      "NumberOfAverages": 1.0,
      "NumberOfPhaseEncodingSteps": 96,
      "PercentPhaseFieldOfView": 100.0,
      "PercentSampling": 100.0,
      "PerformedProcedureStepStartTime": "181056.555000",
      "PhotometricInterpretation": "MONOCHROME2",
      "PixelBandwidth": 2365.0,
      "PixelRepresentation": 0,
      "PixelSpacing": [
        2.5,
        2.5
      ],
      "PositionReferenceIndicator": "",
      "ProtocolName": "func_run-03_task-visualmemory",
      "RepetitionTime": 1000.0,
      "Rows": 672,
      "SAR": 0.04763790673111,
      "SamplesPerPixel": 1,
      "ScanOptions": "FS",
      "ScanningSequence": "EP",
      "SequenceName": "*epfid2d1_96",
      "SequenceVariant": "SK",
      "SeriesDescription": "func_run-03_task-visualmemory",
      "SeriesNumber": 22,
      "SeriesTime": "183311.144000",
      "SliceLocation": -81.064904036985,
      "SliceThickness": 2.5,
      "SmallestImagePixelValue": 0,
      "SoftwareVersions": "syngo MR E11",
      "SpacingBetweenSlices": 2.5000000743965,
      "SpecificCharacterSet": "ISO_IR 100",
      "StudyID": "2",
      "StudyTime": "181056.504000",
      "TransmitCoilName": "Body",
      "VariableFlipAngleFlag": "N",
      "WindowCenterWidthExplanation": "Algo1",
      "dBdt": 0.0
    },
    "slices": {}
  },
  "time": {
    "samples": {
      "AcquisitionNumber": [
        1,
        2,
        3,
        4,
        5,
        6,
        7,
        8,
        9,
        10,
        11,
        12,
        13,
        14,
        15,
        16,
        17,
        18,
        19,
        20,
        21,
        22,
        23,
        24,
        25,
        26,
        27,
        28,
        29,
        30,
        31,
        32,
        33,
        34,
        35,
        36,
        37,
        38,
        39,
        40,
        41,
        42,
        43,
        44,
        45,
        46,
        47,
        48,
        49,
        50,
        51,
        52,
        53,
        54,
        55,
        56,
        57,
        58,
        59,
        60,
        61,
        62,
        63,
        64,
        65,
        66,
        67,
        68,
        69,
        70,
        71,
        72,
        73,
        74,
        75,
        76,
        77,
        78,
        79,
        80,
        81,
        82,
        83,
        84,
        85,
        86,
        87,
        88,
        89,
        90,
        91,
        92,
        93,
        94,
        95,
        96,
        97,
        98,
        99,
        100,
        101,
        102,
        103,
        104,
        105,
        106,
        107,
        108,
        109,
        110,
        111,
        112,
        113,
        114,
        115,
        116,
        117,
        118,
        119,
        120,
        121,
        122,
        123,
        124,
        125,
        126,
        127,
        128,
        129,
        130,
        131,
        132,
        133,
        134,
        135,
        136,
        137,
        138,
        139,
        140,
        141,
        142,
        143,
        144,
        145,
        146,
        147,
        148,
        149,
        150,
        151,
        152,
        153,
        154,
        155,
        156,
        157,
        158,
        159,
        160,
        161,
        162,
        163,
        164,
        165,
        166,
        167,
        168,
        169,
        170,
        171,
        172,
        173,
        174,
        175,
        176,
        177,
        178,
        179,
        180,
        181,
        182,
        183,
        184,
        185,
        186,
        187,
        188,
        189,
        190,
        191,
        192,
        193,
        194,
        195,
        196,
        197,
        198,
        199,
        200,
        201,
        202,
        203,
        204,
        205,
        206,
        207,
        208,
        209,
        210,
        211,
        212,
        213,
        214,
        215,
        216,
        217,
        218,
        219,
        220,
        221,
        222,
        223,
        224,
        225,
        226,
        227,
        228,
        229,
        230,
        231,
        232,
        233,
        234,
        235,
        236,
        237,
        238,
        239,
        240,
        241,
        242,
        243,
        244,
        245,
        246,
        247,
        248,
        249,
        250,
        251,
        252,
        253,
        254,
        255,
        256,
        257,
        258,
        259,
        260,
        261,
        262,
        263,
        264,
        265,
        266,
        267,
        268,
        269,
        270,
        271,
        272,
        273,
        274,
        275,
        276,
        277,
        278,
        279,
        280,
        281,
        282,
        283,
        284,
        285,
        286,
        287,
        288
      ],
      "AcquisitionTime": [
        "183309.387500",
        "183310.387500",
        "183311.387500",
        "183312.387500",
        "183313.387500",
        "183314.387500",
        "183315.387500",
        "183316.387500",
        "183317.387500",
        "183318.387500",
        "183319.387500",
        "183320.387500",
        "183321.387500",
        "183322.387500",
        "183323.387500",
        "183324.387500",
        "183325.387500",
        "183326.387500",
        "183327.387500",
        "183328.387500",
        "183329.387500",
        "183330.387500",
        "183331.387500",
        "183332.387500",
        "183333.387500",
        "183334.387500",
        "183335.387500",
        "183336.387500",
        "183337.387500",
        "183338.387500",
        "183339.387500",
        "183340.387500",
        "183341.387500",
        "183342.387500",
        "183343.387500",
        "183344.387500",
        "183345.387500",
        "183346.387500",
        "183347.387500",
        "183348.387500",
        "183349.387500",
        "183350.387500",
        "183351.387500",
        "183352.387500",
        "183353.387500",
        "183354.387500",
        "183355.387500",
        "183356.387500",
        "183357.387500",
        "183358.387500",
        "183359.387500",
        "183400.387500",
        "183401.387500",
        "183402.387500",
        "183403.387500",
        "183404.387500",
        "183405.387500",
        "183406.387500",
        "183407.387500",
        "183408.387500",
        "183409.387500",
        "183410.387500",
        "183411.387500",
        "183412.387500",
        "183413.387500",
        "183414.387500",
        "183415.387500",
        "183416.387500",
        "183417.387500",
        "183418.387500",
        "183419.387500",
        "183420.387500",
        "183421.387500",
        "183422.387500",
        "183423.387500",
        "183424.387500",
        "183425.387500",
        "183426.387500",
        "183427.387500",
        "183428.387500",
        "183429.387500",
        "183430.387500",
        "183431.387500",
        "183432.387500",
        "183433.387500",
        "183434.387500",
        "183435.387500",
        "183436.387500",
        "183437.387500",
        "183438.387500",
        "183439.387500",
        "183440.387500",
        "183441.387500",
        "183442.387500",
        "183443.387500",
        "183444.387500",
        "183445.387500",
        "183446.387500",
        "183447.387500",
        "183448.387500",
        "183449.387500",
        "183450.387500",
        "183451.387500",
        "183452.387500",
        "183453.387500",
        "183454.387500",
        "183455.387500",
        "183456.387500",
        "183457.387500",
        "183458.387500",
        "183459.387500",
        "183500.387500",
        "183501.387500",
        "183502.387500",
        "183503.387500",
        "183504.387500",
        "183505.387500",
        "183506.387500",
        "183507.387500",
        "183508.387500",
        "183509.387500",
        "183510.387500",
        "183511.387500",
        "183512.387500",
        "183513.387500",
        "183514.387500",
        "183515.387500",
        "183516.387500",
        "183517.387500",
        "183518.387500",
        "183519.387500",
        "183520.387500",
        "183521.387500",
        "183522.387500",
        "183523.387500",
        "183524.387500",
        "183525.387500",
        "183526.387500",
        "183527.387500",
        "183528.387500",
        "183529.387500",
        "183530.387500",
        "183531.387500",
        "183532.387500",
        "183533.387500",
        "183534.387500",
        "183535.387500",
        "183536.387500",
        "183537.387500",
        "183538.387500",
        "183539.387500",
        "183540.387500",
        "183541.387500",
        "183542.387500",
        "183543.387500",
        "183544.387500",
        "183545.387500",
        "183546.387500",
        "183547.387500",
        "183548.387500",
        "183549.387500",
        "183550.387500",
        "183551.387500",
        "183552.387500",
        "183553.387500",
        "183554.387500",
        "183555.387500",
        "183556.387500",
        "183557.387500",
        "183558.387500",
        "183559.387500",
        "183600.387500",
        "183601.387500",
        "183602.387500",
        "183603.387500",
        "183604.387500",
        "183605.387500",
        "183606.387500",
        "183607.387500",
        "183608.387500",
        "183609.387500",
        "183610.387500",
        "183611.387500",
        "183612.387500",
        "183613.387500",
        "183614.387500",
        "183615.387500",
        "183616.387500",
        "183617.387500",
        "183618.387500",
        "183619.387500",
        "183620.387500",
        "183621.387500",
        "183622.387500",
        "183623.387500",
        "183624.387500",
        "183625.387500",
        "183626.387500",
        "183627.387500",
        "183628.387500",
        "183629.387500",
        "183630.387500",
        "183631.387500",
        "183632.387500",
        "183633.387500",
        "183634.387500",
        "183635.387500",
        "183636.387500",
        "183637.387500",
        "183638.387500",
        "183639.387500",
        "183640.387500",
        "183641.387500",
        "183642.387500",
        "183643.387500",
        "183644.387500",
        "183645.387500",
        "183646.387500",
        "183647.387500",
        "183648.387500",
        "183649.387500",
        "183650.387500",
        "183651.387500",
        "183652.387500",
        "183653.387500",
        "183654.387500",
        "183655.387500",
        "183656.387500",
        "183657.387500",
        "183658.387500",
        "183659.387500",
        "183700.387500",
        "183701.387500",
        "183702.387500",
        "183703.387500",
        "183704.387500",
        "183705.387500",
        "183706.387500",
        "183707.387500",
        "183708.387500",
        "183709.387500",
        "183710.387500",
        "183711.387500",
        "183712.387500",
        "183713.387500",
        "183714.387500",
        "183715.387500",
        "183716.387500",
        "183717.387500",
        "183718.387500",
        "183719.387500",
        "183720.387500",
        "183721.387500",
        "183722.387500",
        "183723.387500",
        "183724.387500",
        "183725.387500",
        "183726.387500",
        "183727.387500",
        "183728.387500",
        "183729.387500",
        "183730.387500",
        "183731.387500",
        "183732.387500",
        "183733.387500",
        "183734.387500",
        "183735.387500",
        "183736.387500",
        "183737.387500",
        "183738.387500",
        "183739.387500",
        "183740.387500",
        "183741.387500",
        "183742.387500",
        "183743.387500",
        "183744.387500",
        "183745.387500",
        "183746.387500",
        "183747.387500",
        "183748.387500",
        "183749.387500",
        "183750.387500",
        "183751.387500",
        "183752.387500",
        "183753.387500",
        "183754.387500",
        "183755.387500",
        "183756.387500"
      ],
      "ContentTime": [
        "183311.148000",
        "183311.996000",
        "183313.007000",
        "183314.046000",
        "183315.075000",
        "183316.014000",
        "183317.014000",
        "183318.002000",
        "183319.001000",
        "183320.016000",
        "183320.998000",
        "183321.980000",
        "183323.010000",
        "183324.022000",
        "183325.007000",
        "183325.991000",
        "183326.990000",
        "183328.016000",
        "183329.022000",
        "183330.050000",
        "183331.018000",
        "183332.002000",
        "183333.007000",
        "183334.001000",
        "183335.028000",
        "183336.015000",
        "183337.002000",
        "183338.017000",
        "183338.976000",
        "183340.043000",
        "183341.018000",
        "183342.003000",
        "183342.997000",
        "183344.016000",
        "183345.014000",
        "183346.008000",
        "183346.994000",
        "183348.001000",
        "183349.032000",
        "183349.998000",
        "183351.013000",
        "183352.001000",
        "183353.005000",
        "183354.014000",
        "183354.998000",
        "183355.998000",
        "183357.058000",
        "183357.990000",
        "183359.004000",
        "183359.986000",
        "183401.002000",
        "183402.000000",
        "183403.008000",
        "183404.006000",
        "183405.015000",
        "183405.993000",
        "183407.000000",
        "183408.023000",
        "183408.982000",
        "183409.994000",
        "183411.009000",
        "183412.019000",
        "183413.001000",
        "183413.973000",
        "183415.011000",
        "183415.994000",
        "183417.015000",
        "183418.007000",
        "183419.013000",
        "183420.003000",
        "183420.994000",
        "183421.978000",
        "183423.013000",
        "183423.987000",
        "183424.992000",
        "183425.994000",
        "183427.021000",
        "183428.038000",
        "183429.006000",
        "183429.986000",
        "183431.002000",
        "183432.083000",
        "183432.981000",
        "183433.997000",
        "183435.010000",
        "183436.022000",
        "183437.008000",
        "183437.980000",
        "183439.016000",
        "183440.008000",
        "183440.988000",
        "183442.007000",
        "183443.007000",
        "183443.983000",
        "183444.988000",
        "183446.016000",
        "183447.047000",
        "183448.018000",
        "183448.983000",
        "183449.996000",
        "183451.021000",
        "183452.009000",
        "183453.008000",
        "183453.997000",
        "183454.968000",
        "183456.008000",
        "183456.997000",
        "183458.001000",
        "183458.983000",
        "183459.984000",
        "183501.013000",
        "183502.054000",
        "183503.039000",
        "183504.011000",
        "183504.963000",
        "183505.987000",
        "183507.035000",
        "183508.003000",
        "183509.003000",
        "183510.053000",
        "183510.984000",
        "183511.992000",
        "183513.019000",
        "183514.010000",
        "183514.988000",
        "183516.000000",
        "183517.003000",
        "183518.042000",
        "183519.016000",
        "183520.017000",
        "183521.023000",
        "183522.014000",
        "183523.076000",
        "183524.020000",
        "183525.025000",
        "183525.997000",
        "183527.092000",
        "183528.028000",
        "183528.990000",
        "183530.020000",
        "183531.001000",
        "183532.019000",
        "183532.993000",
        "183534.008000",
        "183535.041000",
        "183536.039000",
        "183537.011000",
        "183538.016000",
        "183539.015000",
        "183540.014000",
        "183540.986000",
        "183542.069000",
        "183543.003000",
        "183544.012000",
        "183545.074000",
        "183546.017000",
        "183547.018000",
        "183548.004000",
        "183548.992000",
        "183550.042000",
        "183551.014000",
        "183552.011000",
        "183552.995000",
        "183553.995000",
        "183554.987000",
        "183555.996000",
        "183557.029000",
        "183557.995000",
        "183559.010000",
        "183600.000000",
        "183601.000000",
        "183602.019000",
        "183602.985000",
        "183604.007000",
        "183605.000000",
        "183606.007000",
        "183607.033000",
        "183608.029000",
        "183609.022000",
        "183610.020000",
        "183611.011000",
        "183611.997000",
        "183613.035000",
        "183614.003000",
        "183614.972000",
        "183615.971000",
        "183617.025000",
        "183618.003000",
        "183619.030000",
        "183619.993000",
        "183621.034000",
        "183622.056000",
        "183622.977000",
        "183623.995000",
        "183625.102000",
        "183626.001000",
        "183627.000000",
        "183628.022000",
        "183629.023000",
        "183629.976000",
        "183631.001000",
        "183632.017000",
        "183632.995000",
        "183634.003000",
        "183635.007000",
        "183635.996000",
        "183636.982000",
        "183638.017000",
        "183638.997000",
        "183639.992000",
        "183641.015000",
        "183642.017000",
        "183642.995000",
        "183643.967000",
        "183644.987000",
        "183646.015000",
        "183647.024000",
        "183648.014000",
        "183649.033000",
        "183650.015000",
        "183651.019000",
        "183651.987000",
        "183653.025000",
        "183653.998000",
        "183655.002000",
        "183655.956000",
        "183657.019000",
        "183658.062000",
        "183659.010000",
        "183659.997000",
        "183700.997000",
        "183702.002000",
        "183703.008000",
        "183704.011000",
        "183704.973000",
        "183706.016000",
        "183707.021000",
        "183708.017000",
        "183709.022000",
        "183710.016000",
        "183711.014000",
        "183712.010000",
        "183712.986000",
        "183714.057000",
        "183715.039000",
        "183716.006000",
        "183717.000000",
        "183718.007000",
        "183719.002000",
        "183720.009000",
        "183721.010000",
        "183721.993000",
        "183723.013000",
        "183723.992000",
        "183725.014000",
        "183726.053000",
        "183726.994000",
        "183728.010000",
        "183729.031000",
        "183730.021000",
        "183731.013000",
        "183732.018000",
        "183732.997000",
        "183734.014000",
        "183735.018000",
        "183736.010000",
        "183737.003000",
        "183738.017000",
        "183739.010000",
        "183740.009000",
        "183741.003000",
        "183742.049000",
        "183743.031000",
        "183744.001000",
        "183744.995000",
        "183746.011000",
        "183747.004000",
        "183748.038000",
        "183749.013000",
        "183750.066000",
        "183751.021000",
        "183752.012000",
        "183753.009000",
        "183754.017000",
        "183755.003000",
        "183755.996000",
        "183757.025000",
        "183758.048000"
      ],
      "InstanceCreationTime": [
        "183311.148000",
        "183311.996000",
        "183313.007000",
        "183314.046000",
        "183315.075000",
        "183316.014000",
        "183317.014000",
        "183318.002000",
        "183319.001000",
        "183320.016000",
        "183320.998000",
        "183321.980000",
        "183323.010000",
        "183324.022000",
        "183325.007000",
        "183325.991000",
        "183326.990000",
        "183328.016000",
        "183329.022000",
        "183330.050000",
        "183331.018000",
        "183332.002000",
        "183333.007000",
        "183334.001000",
        "183335.028000",
        "183336.015000",
        "183337.002000",
        "183338.017000",
        "183338.976000",
        "183340.043000",
        "183341.018000",
        "183342.003000",
        "183342.997000",
        "183344.016000",
        "183345.014000",
        "183346.008000",
        "183346.994000",
        "183348.001000",
        "183349.032000",
        "183349.998000",
        "183351.013000",
        "183352.001000",
        "183353.005000",
        "183354.014000",
        "183354.998000",
        "183355.998000",
        "183357.058000",
        "183357.990000",
        "183359.004000",
        "183359.986000",
        "183401.002000",
        "183402.000000",
        "183403.008000",
        "183404.006000",
        "183405.015000",
        "183405.993000",
        "183407.000000",
        "183408.023000",
        "183408.982000",
        "183409.994000",
        "183411.009000",
        "183412.019000",
        "183413.001000",
        "183413.973000",
        "183415.011000",
        "183415.994000",
        "183417.015000",
        "183418.007000",
        "183419.013000",
        "183420.003000",
        "183420.994000",
        "183421.978000",
        "183423.013000",
        "183423.987000",
        "183424.992000",
        "183425.994000",
        "183427.021000",
        "183428.038000",
        "183429.006000",
        "183429.986000",
        "183431.002000",
        "183432.083000",
        "183432.981000",
        "183433.997000",
        "183435.010000",
        "183436.022000",
        "183437.008000",
        "183437.980000",
        "183439.016000",
        "183440.008000",
        "183440.988000",
        "183442.007000",
        "183443.007000",
        "183443.983000",
        "183444.988000",
        "183446.016000",
        "183447.047000",
        "183448.018000",
        "183448.983000",
        "183449.996000",
        "183451.021000",
        "183452.009000",
        "183453.008000",
        "183453.997000",
        "183454.968000",
        "183456.008000",
        "183456.997000",
        "183458.001000",
        "183458.983000",
        "183459.984000",
        "183501.013000",
        "183502.054000",
        "183503.039000",
        "183504.011000",
        "183504.963000",
        "183505.987000",
        "183507.035000",
        "183508.003000",
        "183509.003000",
        "183510.053000",
        "183510.984000",
        "183511.992000",
        "183513.019000",
        "183514.010000",
        "183514.988000",
        "183516.000000",
        "183517.003000",
        "183518.042000",
        "183519.016000",
        "183520.017000",
        "183521.023000",
        "183522.014000",
        "183523.076000",
        "183524.020000",
        "183525.025000",
        "183525.997000",
        "183527.092000",
        "183528.028000",
        "183528.990000",
        "183530.020000",
        "183531.001000",
        "183532.019000",
        "183532.993000",
        "183534.008000",
        "183535.041000",
        "183536.039000",
        "183537.011000",
        "183538.016000",
        "183539.015000",
        "183540.014000",
        "183540.986000",
        "183542.069000",
        "183543.003000",
        "183544.012000",
        "183545.074000",
        "183546.017000",
        "183547.018000",
        "183548.004000",
        "183548.992000",
        "183550.042000",
        "183551.014000",
        "183552.011000",
        "183552.995000",
        "183553.995000",
        "183554.987000",
        "183555.996000",
        "183557.029000",
        "183557.995000",
        "183559.010000",
        "183600.000000",
        "183601.000000",
        "183602.019000",
        "183602.985000",
        "183604.007000",
        "183605.000000",
        "183606.007000",
        "183607.033000",
        "183608.029000",
        "183609.022000",
        "183610.020000",
        "183611.011000",
        "183611.997000",
        "183613.035000",
        "183614.003000",
        "183614.972000",
        "183615.971000",
        "183617.025000",
        "183618.003000",
        "183619.030000",
        "183619.993000",
        "183621.034000",
        "183622.056000",
        "183622.977000",
        "183623.995000",
        "183625.102000",
        "183626.001000",
        "183627.000000",
        "183628.022000",
        "183629.023000",
        "183629.976000",
        "183631.001000",
        "183632.017000",
        "183632.995000",
        "183634.003000",
        "183635.007000",
        "183635.996000",
        "183636.982000",
        "183638.017000",
        "183638.997000",
        "183639.992000",
        "183641.015000",
        "183642.017000",
        "183642.995000",
        "183643.967000",
        "183644.987000",
        "183646.015000",
        "183647.024000",
        "183648.014000",
        "183649.033000",
        "183650.015000",
        "183651.019000",
        "183651.987000",
        "183653.025000",
        "183653.998000",
        "183655.002000",
        "183655.956000",
        "183657.019000",
        "183658.062000",
        "183659.010000",
        "183659.997000",
        "183700.997000",
        "183702.002000",
        "183703.008000",
        "183704.011000",
