{
  "AcquisitionMatrixPE": 96,
  "AcquisitionNumber": 1,
  "AcquisitionTime": "18:43:55.952500",
  "BandwidthPerPixelPhaseEncode": 18.939,
  "BaseResolution": 96,
  "BodyPartExamined": "BRAIN",
  "ConsistencyInfo": "N4_VE11C_LATEST_20160120",
  "ConversionSoftware": "dcm2niix",
  "ConversionSoftwareVersion": "v1.0.20171215 (OpenJPEG build) GCC6.3.0",
  "DerivedVendorReportedEchoSpacing": 0.000550011,
  "DeviceSerialNumber": "66112",
  "DwellTime": 2.2e-06,
  "EchoTime": 0.033,
  "EchoTrainLength": 96,
  "EffectiveEchoSpacing": 0.000550011,
  "FlipAngle": 59,
  "ImageOrientationPatientDICOM": [
    0.997718,
    0.0544669,
    -0.0399106,
    -0.0570039,
    0.996226,
    -0.0654594
  ],
  "ImageType": [
    "ORIGINAL",
    "PRIMARY",
    "FMRI",
    "NONE",
    "ND",
    "NORM",
    "MOSAIC"
  ],
  "InPlanePhaseEncodingDirectionDICOM": "COL",
  "InstitutionAddress": "Maynard_3_Hanover_NH_US_03755",
  "InstitutionName": "Dartmouth_College_-_PBS",
  "InstitutionalDepartmentName": "Department",
  "MRAcquisitionType": "2D",
  "MagneticFieldStrength": 3,
  "Manufacturer": "Siemens",
  "ManufacturersModelName": "Prisma",
  "Modality": "MR",
  "MultibandAccelerationFactor": 4,
  "PatientPosition": "HFS",
  "PercentPhaseFOV": 100,
  "PhaseEncodingDirection": "j-",
  "PhaseEncodingSteps": 96,
  "PhaseResolution": 1,
  "PixelBandwidth": 2365,
  "ProcedureStepDescription": "Gobbini_Matteo_1038_hyperface",
  "ProtocolName": "func_run-05_task-localizer",
  "PulseSequenceDetails": "%SiemensSeq%_ep2d_bold",
  "ReceiveCoilActiveElements": "HEA;HEP",
  "ReceiveCoilName": "Head_32",
  "ReconMatrixPE": 96,
  "RepetitionTime": 1,
  "SAR": 0.047524,
  "ScanOptions": "FS",
  "ScanningSequence": "EP",
  "SequenceName": "_epfid2d1_96",
  "SequenceVariant": "SK",
  "SeriesDescription": "func_run-05_task-localizer",
  "SeriesNumber": 36,
  "ShimSetting": [
    4128,
    -7689,
    -7304,
    680,
    -4,
    -89,
    37,
    93
  ],
  "SliceThickness": 2.5,
  "SliceTiming": [
    0.7325,
    0,
    0.4875,
    0.08,
    0.57,
    0.1625,
    0.6525,
    0.325,
    0.815,
    0.4075,
    0.8975,
    0.2425,
    0.7325,
    0,
    0.4875,
    0.08,
    0.57,
    0.1625,
    0.6525,
    0.325,
    0.815,
    0.4075,
    0.8975,
    0.2425,
    0.7325,
    0,
    0.4875,
    0.08,
    0.57,
    0.1625,
    0.6525,
    0.325,
    0.815,
    0.4075,
    0.8975,
    0.2425,
    0.7325,
    0,
    0.4875,
    0.08,
    0.57,
    0.1625,
    0.6525,
    0.325,
    0.815,
    0.4075,
    0.8975,
    0.2425
  ],
  "SoftwareVersions": "syngo_MR_E11",
  "SpacingBetweenSlices": 2.5,
  "StationName": "AWP66112",
  "TotalReadoutTime": 0.0522511,
  "TxRefAmp": 257.943,
  "dcmmeta_affine": [
    [
      -2.4942941665649414,
      -0.1425098180770874,
      -0.09048642218112946,
      134.5462646484375
    ],
    [
      -0.13616719841957092,
      2.4905641078948975,
      -0.16896259784698486,
      -98.85813903808594
    ],
    [
      -0.09977642446756363,
      0.16364844143390656,
      2.4926419258117676,
      -83.12103271484375
    ],
    [
      0.0,
      0.0,
      0.0,
      1.0
    ]
  ],
  "dcmmeta_reorient_transform": [
    [
      0.0,
      -1.0,
      0.0,
      95.0
    ],
    [
      1.0,
      0.0,
      0.0,
      0.0
    ],
    [
      0.0,
      0.0,
      1.0,
      0.0
    ],
    [
      0.0,
      0.0,
      0.0,
      1.0
    ]
  ],
  "dcmmeta_shape": [
    96,
    96,
    48,
    236
  ],
  "dcmmeta_slice_dim": 2,
  "dcmmeta_version": 0.6,
  "global": {
    "const": {
      "AccessionNumber": "A001343",
      "AcquisitionMatrix": [
        96,
        0,
        0,
        96
      ],
      "AngioFlag": "N",
      "BitsAllocated": 16,
      "BitsStored": 12,
      "BodyPartExamined": "BRAIN",
      "Columns": 672,
      "EchoNumbers": 1,
      "EchoTime": 33.0,
      "EchoTrainLength": 96,
      "FlipAngle": 59.0,
      "HighBit": 11,
      "ImageOrientationPatient": [
        0.99771764816086,
        0.05446687900033,
        -0.0399105705337,
        -0.0570039282058,
        0.99622568821042,
        -0.0654593791505
      ],
      "ImagePositionPatient": [
        -798.32171046931,
        -894.24411092633,
        8.291931440839
      ],
      "ImageType": [
        "ORIGINAL",
        "PRIMARY",
        "FMRI",
        "NONE",
        "ND",
        "NORM",
        "MOSAIC"
      ],
      "ImagedNucleus": "1H",
      "ImagingFrequency": 123.252328,
      "InPlanePhaseEncodingDirection": "COL",
      "MRAcquisitionType": "2D",
      "MagneticFieldStrength": 3.0,
      "Manufacturer": "SIEMENS",
      "ManufacturerModelName": "Prisma",
      "Modality": "MR",
      "NumberOfAverages": 1.0,
      "NumberOfPhaseEncodingSteps": 96,
      "PercentPhaseFieldOfView": 100.0,
      "PercentSampling": 100.0,
      "PerformedProcedureStepStartTime": "181056.555000",
      "PhotometricInterpretation": "MONOCHROME2",
      "PixelBandwidth": 2365.0,
      "PixelRepresentation": 0,
      "PixelSpacing": [
        2.5,
        2.5
      ],
      "PositionReferenceIndicator": "",
      "ProtocolName": "func_run-05_task-localizer",
      "RepetitionTime": 1000.0,
      "Rows": 672,
      "SAR": 0.04752399678756,
      "SamplesPerPixel": 1,
      "ScanOptions": "FS",
      "ScanningSequence": "EP",
      "SequenceName": "*epfid2d1_96",
      "SequenceVariant": "SK",
      "SeriesDescription": "func_run-05_task-localizer",
      "SeriesNumber": 36,
      "SeriesTime": "184357.369000",
      "SliceLocation": -81.064904036985,
      "SliceThickness": 2.5,
      "SmallestImagePixelValue": 0,
      "SoftwareVersions": "syngo MR E11",
      "SpacingBetweenSlices": 2.5000000743965,
      "SpecificCharacterSet": "ISO_IR 100",
      "StudyID": "2",
      "StudyTime": "181056.504000",
      "TransmitCoilName": "Body",
      "VariableFlipAngleFlag": "N",
      "WindowCenterWidthExplanation": "Algo1",
      "dBdt": 0.0
    },
    "slices": {}
  },
  "time": {
    "samples": {
      "AcquisitionNumber": [
        1,
        2,
        3,
        4,
        5,
        6,
        7,
        8,
        9,
        10,
        11,
        12,
        13,
        14,
        15,
        16,
        17,
        18,
        19,
        20,
        21,
        22,
        23,
        24,
        25,
        26,
        27,
        28,
        29,
        30,
        31,
        32,
        33,
        34,
        35,
        36,
        37,
        38,
        39,
        40,
        41,
        42,
        43,
        44,
        45,
        46,
        47,
        48,
        49,
        50,
        51,
        52,
        53,
        54,
        55,
        56,
        57,
        58,
        59,
        60,
        61,
        62,
        63,
        64,
        65,
        66,
        67,
        68,
        69,
        70,
        71,
        72,
        73,
        74,
        75,
        76,
        77,
        78,
        79,
        80,
        81,
        82,
        83,
        84,
        85,
        86,
        87,
        88,
        89,
        90,
        91,
        92,
        93,
        94,
        95,
        96,
        97,
        98,
        99,
        100,
        101,
        102,
        103,
        104,
        105,
        106,
        107,
        108,
        109,
        110,
        111,
        112,
        113,
        114,
        115,
        116,
        117,
        118,
        119,
        120,
        121,
        122,
        123,
        124,
        125,
        126,
        127,
        128,
        129,
        130,
        131,
        132,
        133,
        134,
        135,
        136,
        137,
        138,
        139,
        140,
        141,
        142,
        143,
        144,
        145,
        146,
        147,
        148,
        149,
        150,
        151,
        152,
        153,
        154,
        155,
        156,
        157,
        158,
        159,
        160,
        161,
        162,
        163,
        164,
        165,
        166,
        167,
        168,
        169,
        170,
        171,
        172,
        173,
        174,
        175,
        176,
        177,
        178,
        179,
        180,
        181,
        182,
        183,
        184,
        185,
        186,
        187,
        188,
        189,
        190,
        191,
        192,
        193,
        194,
        195,
        196,
        197,
        198,
        199,
        200,
        201,
        202,
        203,
        204,
        205,
        206,
        207,
        208,
        209,
        210,
        211,
        212,
        213,
        214,
        215,
        216,
        217,
        218,
        219,
        220,
        221,
        222,
        223,
        224,
        225,
        226,
        227,
        228,
        229,
        230,
        231,
        232,
        233,
        234,
        235,
        236
      ],
      "AcquisitionTime": [
        "184355.952500",
        "184356.952500",
        "184357.952500",
        "184358.952500",
        "184359.952500",
        "184400.952500",
        "184401.952500",
        "184402.952500",
        "184403.952500",
        "184404.952500",
        "184405.952500",
        "184406.952500",
        "184407.952500",
        "184408.952500",
        "184409.952500",
        "184410.952500",
        "184411.952500",
        "184412.952500",
        "184413.952500",
        "184414.952500",
        "184415.952500",
        "184416.952500",
        "184417.952500",
        "184418.952500",
        "184419.952500",
        "184420.952500",
        "184421.952500",
        "184422.952500",
        "184423.952500",
        "184424.952500",
        "184425.952500",
        "184426.952500",
        "184427.952500",
        "184428.952500",
        "184429.952500",
        "184430.952500",
        "184431.952500",
        "184432.952500",
        "184433.952500",
        "184434.952500",
        "184435.952500",
        "184436.952500",
        "184437.952500",
        "184438.952500",
        "184439.952500",
        "184440.952500",
        "184441.952500",
        "184442.952500",
        "184443.952500",
        "184444.952500",
        "184445.952500",
        "184446.952500",
        "184447.952500",
        "184448.952500",
        "184449.952500",
        "184450.952500",
        "184451.952500",
        "184452.952500",
        "184453.952500",
        "184454.952500",
        "184455.952500",
        "184456.952500",
        "184457.952500",
        "184458.952500",
        "184459.952500",
        "184500.952500",
        "184501.952500",
        "184502.952500",
        "184503.952500",
        "184504.952500",
        "184505.952500",
        "184506.952500",
        "184507.952500",
        "184508.952500",
        "184509.952500",
        "184510.952500",
        "184511.952500",
        "184512.952500",
        "184513.952500",
        "184514.952500",
        "184515.952500",
        "184516.952500",
        "184517.952500",
        "184518.952500",
        "184519.952500",
        "184520.952500",
        "184521.952500",
        "184522.952500",
        "184523.952500",
        "184524.952500",
        "184525.952500",
        "184526.952500",
        "184527.952500",
        "184528.952500",
        "184529.952500",
        "184530.952500",
        "184531.952500",
        "184532.952500",
        "184533.952500",
        "184534.952500",
        "184535.952500",
        "184536.952500",
        "184537.952500",
        "184538.952500",
        "184539.952500",
        "184540.952500",
        "184541.952500",
        "184542.952500",
        "184543.952500",
        "184544.952500",
        "184545.952500",
        "184546.952500",
        "184547.952500",
        "184548.952500",
        "184549.952500",
        "184550.952500",
        "184551.952500",
        "184552.952500",
        "184553.952500",
        "184554.952500",
        "184555.952500",
        "184556.952500",
        "184557.952500",
        "184558.952500",
        "184559.952500",
        "184600.952500",
        "184601.952500",
        "184602.952500",
        "184603.952500",
        "184604.952500",
        "184605.952500",
        "184606.952500",
        "184607.952500",
        "184608.952500",
        "184609.952500",
        "184610.952500",
        "184611.952500",
        "184612.952500",
        "184613.952500",
        "184614.952500",
        "184615.952500",
        "184616.952500",
        "184617.952500",
        "184618.952500",
        "184619.952500",
        "184620.952500",
        "184621.952500",
        "184622.952500",
        "184623.952500",
        "184624.952500",
        "184625.952500",
        "184626.952500",
        "184627.952500",
        "184628.952500",
        "184629.952500",
        "184630.952500",
        "184631.952500",
        "184632.952500",
        "184633.952500",
        "184634.952500",
        "184635.952500",
        "184636.952500",
        "184637.952500",
        "184638.952500",
        "184639.952500",
        "184640.952500",
        "184641.952500",
        "184642.952500",
        "184643.952500",
        "184644.952500",
        "184645.952500",
        "184646.952500",
        "184647.952500",
        "184648.952500",
        "184649.952500",
        "184650.952500",
        "184651.952500",
        "184652.952500",
        "184653.952500",
        "184654.952500",
        "184655.952500",
        "184656.952500",
        "184657.952500",
        "184658.952500",
        "184659.952500",
        "184700.952500",
        "184701.952500",
        "184702.952500",
        "184703.952500",
        "184704.952500",
        "184705.952500",
        "184706.952500",
        "184707.952500",
        "184708.952500",
        "184709.952500",
        "184710.952500",
        "184711.952500",
        "184712.952500",
        "184713.952500",
        "184714.952500",
        "184715.952500",
        "184716.952500",
        "184717.952500",
        "184718.952500",
        "184719.952500",
        "184720.952500",
        "184721.952500",
        "184722.952500",
        "184723.952500",
        "184724.952500",
        "184725.952500",
        "184726.952500",
        "184727.952500",
        "184728.952500",
        "184729.952500",
        "184730.952500",
        "184731.952500",
        "184732.952500",
        "184733.952500",
        "184734.952500",
        "184735.952500",
        "184736.952500",
        "184737.952500",
        "184738.952500",
        "184739.952500",
        "184740.952500",
        "184741.952500",
        "184742.952500",
        "184743.952500",
        "184744.952500",
        "184745.952500",
        "184746.952500",
        "184747.952500",
        "184748.952500",
        "184749.952500",
        "184750.952500"
      ],
      "ContentTime": [
        "184357.373000",
        "184358.257000",
        "184359.266000",
        "184400.261000",
        "184401.247000",
        "184402.267000",
        "184403.256000",
        "184404.237000",
        "184405.275000",
        "184406.300000",
        "184407.245000",
        "184408.230000",
        "184409.253000",
        "184410.248000",
        "184411.253000",
        "184412.244000",
        "184413.263000",
        "184414.246000",
        "184415.267000",
        "184416.266000",
        "184417.247000",
        "184418.248000",
        "184419.262000",
        "184420.252000",
        "184421.232000",
        "184422.247000",
        "184423.275000",
        "184424.252000",
        "184425.290000",
        "184426.268000",
        "184427.252000",
        "184428.239000",
        "184429.317000",
        "184430.259000",
        "184431.247000",
        "184432.260000",
        "184433.230000",
        "184434.237000",
        "184435.273000",
        "184436.234000",
        "184437.258000",
        "184438.258000",
        "184439.261000",
        "184440.258000",
        "184441.323000",
        "184442.262000",
        "184443.235000",
        "184444.241000",
        "184445.240000",
        "184446.242000",
        "184447.242000",
        "184448.263000",
        "184449.259000",
        "184450.250000",
        "184451.258000",
        "184452.257000",
        "184453.275000",
        "184454.275000",
        "184455.251000",
        "184456.226000",
        "184457.293000",
        "184458.260000",
        "184459.221000",
        "184500.250000",
        "184501.252000",
        "184502.251000",
        "184503.226000",
        "184504.267000",
        "184505.270000",
        "184506.245000",
        "184507.269000",
        "184508.254000",
        "184509.254000",
        "184510.252000",
        "184511.277000",
        "184512.250000",
        "184513.257000",
        "184514.242000",
        "184515.252000",
        "184516.251000",
        "184517.304000",
        "184518.283000",
        "184519.274000",
        "184520.272000",
        "184521.275000",
        "184522.258000",
        "184523.270000",
        "184524.226000",
        "184525.277000",
        "184526.238000",
        "184527.240000",
        "184528.250000",
        "184529.241000",
        "184530.248000",
        "184531.247000",
        "184532.236000",
        "184533.250000",
        "184534.252000",
        "184535.262000",
        "184536.253000",
        "184537.240000",
        "184538.254000",
        "184539.220000",
        "184540.268000",
        "184541.235000",
        "184542.243000",
        "184543.267000",
        "184544.263000",
        "184545.238000",
        "184546.257000",
        "184547.263000",
        "184548.284000",
        "184549.273000",
        "184550.262000",
        "184551.256000",
        "184552.246000",
        "184553.257000",
        "184554.251000",
        "184555.247000",
        "184556.248000",
        "184557.270000",
        "184558.230000",
        "184559.286000",
        "184600.267000",
        "184601.248000",
        "184602.264000",
        "184603.257000",
        "184604.272000",
        "184605.253000",
        "184606.298000",
        "184607.254000",
        "184608.256000",
        "184609.265000",
        "184610.271000",
        "184611.263000",
        "184612.234000",
        "184613.271000",
        "184614.260000",
        "184615.242000",
        "184616.257000",
        "184617.268000",
        "184618.245000",
        "184619.255000",
        "184620.258000",
        "184621.278000",
        "184622.262000",
        "184623.298000",
        "184624.251000",
        "184625.271000",
        "184626.248000",
        "184627.289000",
        "184628.260000",
        "184629.279000",
        "184630.283000",
        "184631.248000",
        "184632.262000",
        "184633.251000",
        "184634.235000",
        "184635.290000",
        "184636.262000",
        "184637.278000",
        "184638.244000",
        "184639.274000",
        "184640.290000",
        "184641.250000",
        "184642.270000",
        "184643.259000",
        "184644.245000",
        "184645.273000",
        "184646.270000",
        "184647.249000",
        "184648.257000",
        "184649.260000",
        "184650.252000",
        "184651.252000",
        "184652.253000",
        "184653.271000",
        "184654.265000",
        "184655.282000",
        "184656.250000",
        "184657.326000",
        "184658.272000",
        "184659.238000",
        "184700.257000",
        "184701.238000",
        "184702.256000",
        "184703.215000",
        "184704.256000",
        "184705.283000",
        "184706.235000",
        "184707.274000",
        "184708.251000",
        "184709.242000",
        "184710.263000",
        "184711.246000",
        "184712.264000",
        "184713.258000",
        "184714.237000",
        "184715.278000",
        "184716.270000",
        "184717.267000",
        "184718.260000",
        "184719.261000",
        "184720.261000",
        "184721.232000",
        "184722.255000",
        "184723.230000",
        "184724.243000",
        "184725.233000",
        "184726.297000",
        "184727.258000",
        "184728.284000",
        "184729.267000",
        "184730.279000",
        "184731.256000",
        "184732.295000",
        "184733.329000",
        "184734.290000",
        "184735.228000",
        "184736.240000",
        "184737.258000",
        "184738.262000",
        "184739.249000",
        "184740.257000",
        "184741.262000",
        "184742.245000",
        "184743.221000",
        "184744.284000",
        "184745.280000",
        "184746.267000",
        "184747.227000",
        "184748.248000",
        "184749.237000",
        "184750.240000",
        "184751.246000",
        "184752.279000"
      ],
      "InstanceCreationTime": [
        "184357.373000",
        "184358.257000",
        "184359.266000",
        "184400.261000",
        "184401.247000",
        "184402.267000",
        "184403.256000",
        "184404.237000",
        "184405.275000",
        "184406.300000",
        "184407.245000",
        "184408.230000",
        "184409.253000",
        "184410.248000",
        "184411.253000",
        "184412.244000",
        "184413.263000",
        "184414.246000",
        "184415.267000",
        "184416.266000",
        "184417.247000",
        "184418.248000",
        "184419.262000",
        "184420.252000",
        "184421.232000",
        "184422.247000",
        "184423.275000",
        "184424.252000",
        "184425.290000",
        "184426.268000",
        "184427.252000",
        "184428.239000",
        "184429.317000",
        "184430.259000",
        "184431.247000",
        "184432.260000",
        "184433.230000",
        "184434.237000",
        "184435.273000",
        "184436.234000",
        "184437.258000",
        "184438.258000",
        "184439.261000",
        "184440.258000",
        "184441.323000",
        "184442.262000",
        "184443.235000",
        "184444.241000",
        "184445.240000",
        "184446.242000",
        "184447.242000",
        "184448.263000",
        "184449.259000",
        "184450.250000",
        "184451.258000",
        "184452.257000",
        "184453.275000",
        "184454.275000",
        "184455.251000",
        "184456.226000",
        "184457.293000",
        "184458.260000",
        "184459.221000",
        "184500.250000",
        "184501.252000",
        "184502.251000",
        "184503.226000",
        "184504.267000",
        "184505.270000",
        "184506.245000",
        "184507.269000",
        "184508.254000",
        "184509.254000",
        "184510.252000",
        "184511.277000",
        "184512.250000",
        "184513.257000",
        "184514.242000",
        "184515.252000",
        "184516.251000",
        "184517.304000",
        "184518.283000",
        "184519.274000",
        "184520.272000",
        "184521.275000",
        "184522.258000",
        "184523.270000",
        "184524.226000",
        "184525.277000",
        "184526.238000",
        "184527.240000",
        "184528.250000",
        "184529.241000",
        "184530.248000",
        "184531.247000",
        "184532.236000",
        "184533.250000",
        "184534.252000",
        "184535.262000",
        "184536.253000",
        "184537.240000",
        "184538.254000",
        "184539.220000",
        "184540.268000",
        "184541.235000",
        "184542.243000",
        "184543.267000",
        "184544.263000",
        "184545.238000",
        "184546.257000",
        "184547.263000",
        "184548.284000",
        "184549.273000",
        "184550.262000",
        "184551.256000",
        "184552.246000",
        "184553.257000",
        "184554.251000",
        "184555.247000",
        "184556.248000",
        "184557.270000",
        "184558.230000",
        "184559.286000",
        "184600.267000",
        "184601.248000",
        "184602.264000",
        "184603.257000",
        "184604.272000",
        "184605.253000",
        "184606.298000",
        "184607.254000",
        "184608.256000",
        "184609.265000",
        "184610.271000",
        "184611.263000",
        "184612.234000",
        "184613.271000",
        "184614.260000",
        "184615.242000",
        "184616.257000",
        "184617.268000",
        "184618.245000",
        "184619.255000",
        "184620.258000",
        "184621.278000",
        "184622.262000",
        "184623.298000",
        "184624.251000",
        "184625.271000",
        "184626.248000",
        "184627.289000",
        "184628.260000",
        "184629.279000",
        "184630.283000",
        "184631.248000",
        "184632.262000",
        "184633.251000",
        "184634.235000",
        "184635.290000",
        "184636.262000",
        "184637.278000",
        "184638.244000",
        "184639.274000",
        "184640.290000",
        "184641.250000",
        "184642.270000",
        "184643.259000",
        "184644.245000",
        "184645.273000",
        "184646.270000",
        "184647.249000",
        "184648.257000",
        "184649.260000",
        "184650.252000",
        "184651.252000",
        "184652.253000",
        "184653.271000",
        "184654.265000",
        "184655.282000",
        "184656.250000",
        "184657.326000",
        "184658.272000",
        "184659.238000",
        "184700.257000",
        "184701.238000",
        "184702.256000",
        "184703.215000",
        "184704.256000",
        "184705.283000",
        "184706.235000",
        "184707.274000",
        "184708.251000",
        "184709.242000",
        "184710.263000",
        "184711.246000",
        "184712.264000",
        "184713.258000",
        "184714.237000",
        "184715.278000",
        "184716.270000",
        "184717.267000",
        "184718.260000",
        "184719.261000",
        "184720.261000",
        "184721.232000",
        "184722.255000",
        "184723.230000",
        "184724.243000",
        "184725.233000",
        "184726.297000",
        "184727.258000",
        "184728.284000",
        "184729.267000",
        "184730.279000",
        "184731.256000",
        "184732.295000",
        "184733.329000",
        "184734.290000",
        "184735.228000",
        "184736.240000",
        "184737.258000",
        "184738.262000",
        "184739.249000",
        "184740.257000",
        "184741.262000",
        "184742.245000",
        "184743.221000",
        "184744.284000",
        "184745.280000",
        "184746.267000",
        "184747.227000",
        "184748.248000",
        "184749.237000",
        "184750.240000",
        "184751.246000",
        "184752.279000"
      ],
      "InstanceNumber": [
        1,
        2,
        3,
        4,
        5,
        6,
        7,
        8,
        9,
        10,
        11,
        12,
        13,
        14,
        15,
        16,
        17,
        18,
        19,
        20,
        21,
        22,
        23,
        24,
        25,
        26,
        27,
        28,
        29,
        30,
        31,
        32,
        33,
        34,
        35,
        36,
        37,
        38,
        39,
        40,
        41,
        42,
        43,
        44,
        45,
        46,
        47,
        48,
        49,
        50,
        51,
        52,
        53,
        54,
        55,
        56,
        57,
        58,
        59,
        60,
        61,
        62,
        63,
        64,
        65,
        66,
        67,
        68,
        69,
        70,
        71,
        72,
        73,
        74,
        75,
        76,
        77,
        78,
        79,
        80,
        81,
        82,
        83,
        84,
        85,
        86,
        87,
        88,
        89,
        90,
        91,
        92,
        93,
        94,
        95,
        96,
        97,
        98,
        99,
        100,
        101,
        102,
        103,
        104,
        105,
        106,
        107,
        108,
        109,
        110,
        111,
        112,
        113,
        114,
        115,
        116,
        117,
        118,
        119,
        120,
        121,
        122,
        123,
        124,
        125,
        126,
        127,
        128,
        129,
        130,
        131,
        132,
        133,
        134,
        135,
        136,
        137,
        138,
        139,
        140,
        141,
        142,
        143,
        144,
        145,
        146,
        147,
        148,
        149,
        150,
        151,
        152,
        153,
        154,
        155,
        156,
        157,
        158,
        159,
        160,
        161,
        162,
        163,
        164,
        165,
        166,
        167,
        168,
        169,
        170,
        171,
        172,
        173,
        174,
        175,
        176,
        177,
        178,
        179,
        180,
        181,
        182,
        183,
        184,
        185,
        186,
        187,
        188,
        189,
        190,
        191,
        192,
        193,
        194,
        195,
        196,
        197,
        198,
        199,
        200,
        201,
        202,
        203,
        204,
        205,
        206,
        207,
        208,
        209,
        210,
        211,
        212,
        213,
        214,
        215,
        216,
        217,
        218,
        219,
        220,
        221,
        222,
        223,
        224,
        225,
        226,
        227,
        228,
        229,
        230,
        231,
        232,
        233,
        234,
        235,
        236
      ],
      "LargestImagePixelValue": [
        1531,
        1146,
        880,
        1101,
        1100,
        953,
        798,
        846,
        1032,
        762,
        797,
        981,
        1035,
        1189,
        939,
        966,
