{
  "AcquisitionMatrixPE": 120,
  "AcquisitionNumber": 1,
  "AcquisitionTime": "09:41:40.527500",
  "BandwidthPerPixelPhaseEncode": 13.889,
  "BaseResolution": 120,
  "BodyPartExamined": "BRAIN",
  "ConsistencyInfo": "N4_VE11C_LATEST_20160120",
  "ConversionSoftware": "dcm2niix",
  "ConversionSoftwareVersion": "v1.0.20170923 (OpenJPEG build) GCC6.3.0",
  "DerivedVendorReportedEchoSpacing": 0.000599995,
  "DeviceSerialNumber": "66112",
  "DwellTime": 2e-06,
  "EchoTime": 0.103,
  "EchoTrainLength": 120,
  "EffectiveEchoSpacing": 0.000599995,
  "FlipAngle": 90,
  "ImageType": [
    "ORIGINAL",
    "PRIMARY",
    "DIFFUSION",
    "NONE",
    "ND",
    "NORM",
    "MOSAIC"
  ],
  "InstitutionAddress": "Maynard_3_Hanover_NH_US_03755",
  "InstitutionName": "Dartmouth_College_-_PBS",
  "MagneticFieldStrength": 3,
  "Manufacturer": "Siemens",
  "ManufacturersModelName": "Prisma",
  "Modality": "MR",
  "MultibandAccelerationFactor": 4,
  "PercentPhaseFOV": 100,
  "PhaseEncodingDirection": "j-",
  "PhaseEncodingSteps": 120,
  "PhaseResolution": 1,
  "ProcedureStepDescription": "Gobbini_Matteo_1038_hyperface",
  "ProtocolName": "dwi_acq-2.0mmXhardi96Xsms4X11b0",
  "PulseSequenceDetails": "%SiemensSeq%_ep2d_diff",
  "ReceiveCoilActiveElements": "HEA;HEP",
  "ReceiveCoilName": "Head_32",
  "ReconMatrixPE": 120,
  "RepetitionTime": 2.6,
  "ScanOptions": "FS",
  "ScanningSequence": "EP",
  "SequenceName": "_ep_b0",
  "SequenceVariant": "SK_SP",
  "SeriesDescription": "dwi_acq-2.0mmXhardi96Xsms4X11b0",
  "SliceTiming": [
    1.935,
    0,
    1.29,
    0.16,
    1.45,
    0.3225,
    1.6125,
    0.4825,
    1.7725,
    0.805,
    2.095,
    0.9675,
    2.2575,
    1.1275,
    2.4175,
    0.645,
    1.935,
    0,
    1.29,
    0.16,
    1.45,
    0.3225,
    1.6125,
    0.4825,
    1.7725,
    0.805,
    2.095,
    0.9675,
    2.2575,
    1.1275,
    2.4175,
    0.645,
    1.935,
    0,
    1.29,
    0.16,
    1.45,
    0.3225,
    1.6125,
    0.4825,
    1.7725,
    0.805,
    2.095,
    0.9675,
    2.2575,
    1.1275,
    2.4175,
    0.645,
    1.935,
    0,
    1.29,
    0.16,
    1.45,
    0.3225,
    1.6125,
    0.4825,
    1.7725,
    0.805,
    2.095,
    0.9675,
    2.2575,
    1.1275,
    2.4175,
    0.645
  ],
  "SoftwareVersions": "syngo_MR_E11",
  "StationName": "AWP66112",
  "TotalReadoutTime": 0.0713994,
  "dcmmeta_affine": [
    [
      -1.9994287490844727,
      -0.045722514390945435,
      -0.013933947309851646,
      124.70272827148438
    ],
    [
      -0.04572758823633194,
      1.9994771480560303,
      0.0005695299478247762,
      -97.95674133300781
    ],
    [
      -0.013917284086346626,
      -0.0008879501838237047,
      1.9999514818191528,
      -50.735050201416016
    ],
    [
      0.0,
      0.0,
      0.0,
      1.0
    ]
  ],
  "dcmmeta_reorient_transform": [
    [
      0.0,
      -1.0,
      0.0,
      119.0
    ],
    [
      1.0,
      0.0,
      0.0,
      0.0
    ],
    [
      0.0,
      0.0,
      1.0,
      0.0
    ],
    [
      0.0,
      0.0,
      0.0,
      1.0
    ]
  ],
  "dcmmeta_shape": [
    120,
    120,
    64,
    107
  ],
  "dcmmeta_slice_dim": 2,
  "dcmmeta_version": 0.6,
  "global": {
    "const": {
      "AccessionNumber": "A001149",
      "AcquisitionMatrix": [
        120,
        0,
        0,
        120
      ],
      "AngioFlag": "N",
      "BitsAllocated": 16,
      "BitsStored": 12,
      "BodyPartExamined": "BRAIN",
      "Columns": 960,
      "EchoNumbers": 1,
      "EchoTime": 103.0,
      "EchoTrainLength": 120,
      "FlipAngle": 90.0,
      "HighBit": 11,
      "ImageOrientationPatient": [
        0.99971437130224,
        0.02286379486794,
        -0.0069586418223,
        -0.0228612574671,
        0.99973854871819,
        0.00044397507976
      ],
      "ImagePositionPatient": [
        -939.81836458691,
        -998.96700289444,
        -45.368394597604
      ],
      "ImageType": [
        "ORIGINAL",
        "PRIMARY",
        "DIFFUSION",
        "NONE",
        "ND",
        "NORM",
        "MOSAIC"
      ],
      "ImagedNucleus": "1H",
      "ImagingFrequency": 123.252291,
      "InPlanePhaseEncodingDirection": "COL",
      "MRAcquisitionType": "2D",
      "MagneticFieldStrength": 3.0,
      "Manufacturer": "SIEMENS",
      "ManufacturerModelName": "Prisma",
      "Modality": "MR",
      "NumberOfAverages": 1.0,
      "NumberOfPhaseEncodingSteps": 120,
      "PercentPhaseFieldOfView": 100.0,
      "PercentSampling": 100.0,
      "PerformedProcedureStepStartTime": "084206.738000",
      "PhotometricInterpretation": "MONOCHROME2",
      "PixelBandwidth": 2085.0,
      "PixelRepresentation": 0,
      "PixelSpacing": [
        2.0,
        2.0
      ],
      "PositionReferenceIndicator": "",
      "ProtocolName": "dwi_acq-2.0mmXhardi96Xsms4X11b0",
      "RepetitionTime": 2600.0,
      "Rows": 960,
      "SAR": 0.3112526922155,
      "SamplesPerPixel": 1,
      "ScanOptions": "FS",
      "ScanningSequence": "EP",
      "SequenceVariant": [
        "SK",
        "SP"
      ],
      "SeriesDescription": "dwi_acq-2.0mmXhardi96Xsms4X11b0",
      "SeriesNumber": 66,
      "SeriesTime": "094237.990000",
      "SliceLocation": -51.630510455407,
      "SliceThickness": 2.0,
      "SmallestImagePixelValue": 0,
      "SoftwareVersions": "syngo MR E11",
      "SpacingBetweenSlices": 2.0000000586962,
      "SpecificCharacterSet": "ISO_IR 100",
      "StudyID": "1",
      "StudyTime": "084206.617000",
      "TransmitCoilName": "Body",
      "VariableFlipAngleFlag": "N",
      "WindowCenterWidthExplanation": "Algo1",
      "dBdt": 0.0
    },
    "slices": {}
  },
  "time": {
    "samples": {
      "AcquisitionNumber": [
        1,
        2,
        3,
        4,
        5,
        6,
        7,
        8,
        9,
        10,
        11,
        12,
        13,
        14,
        15,
        16,
        17,
        18,
        19,
        20,
        21,
        22,
        23,
        24,
        25,
        26,
        27,
        28,
        29,
        30,
        31,
        32,
        33,
        34,
        35,
        36,
        37,
        38,
        39,
        40,
        41,
        42,
        43,
        44,
        45,
        46,
        47,
        48,
        49,
        50,
        51,
        52,
        53,
        54,
        55,
        56,
        57,
        58,
        59,
        60,
        61,
        62,
        63,
        64,
        65,
        66,
        67,
        68,
        69,
        70,
        71,
        72,
        73,
        74,
        75,
        76,
        77,
        78,
        79,
        80,
        81,
        82,
        83,
        84,
        85,
        86,
        87,
        88,
        89,
        90,
        91,
        92,
        93,
        94,
        95,
        96,
        97,
        98,
        99,
        100,
        101,
        102,
        103,
        104,
        105,
        106,
        107
      ],
      "AcquisitionTime": [
        "094140.527500",
        "094143.127500",
        "094145.727500",
        "094148.327500",
        "094150.927500",
        "094153.527500",
        "094156.127500",
        "094158.727500",
        "094201.327500",
        "094203.927500",
        "094206.527500",
        "094209.127500",
        "094211.727500",
        "094214.327500",
        "094216.927500",
        "094219.527500",
        "094222.127500",
        "094224.727500",
        "094227.327500",
        "094229.927500",
        "094232.527500",
        "094235.127500",
        "094237.727500",
        "094240.327500",
        "094242.927500",
        "094245.527500",
        "094248.127500",
        "094250.727500",
        "094253.327500",
        "094255.927500",
        "094258.527500",
        "094301.127500",
        "094303.727500",
        "094306.327500",
        "094308.927500",
        "094311.527500",
        "094314.127500",
        "094316.727500",
        "094319.327500",
        "094321.927500",
        "094324.527500",
        "094327.127500",
        "094329.727500",
        "094332.327500",
        "094334.927500",
        "094337.527500",
        "094340.127500",
        "094342.727500",
        "094345.327500",
        "094347.927500",
        "094350.527500",
        "094353.127500",
        "094355.727500",
        "094358.327500",
        "094400.927500",
        "094403.527500",
        "094406.127500",
        "094408.727500",
        "094411.327500",
        "094413.927500",
        "094416.527500",
        "094419.127500",
        "094421.727500",
        "094424.327500",
        "094426.927500",
        "094429.527500",
        "094432.127500",
        "094434.727500",
        "094437.327500",
        "094439.927500",
        "094442.527500",
        "094445.127500",
        "094447.727500",
        "094450.327500",
        "094452.927500",
        "094455.527500",
        "094458.127500",
        "094500.727500",
        "094503.327500",
        "094505.927500",
        "094508.527500",
        "094511.127500",
        "094513.727500",
        "094516.327500",
        "094518.927500",
        "094521.527500",
        "094524.127500",
        "094526.727500",
        "094529.327500",
        "094531.927500",
        "094534.527500",
        "094537.127500",
        "094539.727500",
        "094542.327500",
        "094544.927500",
        "094547.527500",
        "094550.127500",
        "094552.727500",
        "094555.327500",
        "094557.927500",
        "094600.527500",
        "094603.127500",
        "094605.727500",
        "094608.327500",
        "094610.927500",
        "094613.527500",
        "094616.127500"
      ],
      "ContentTime": [
        "094237.994000",
        "094237.997000",
        "094238.002000",
        "094238.005000",
        "094238.008000",
        "094238.011000",
        "094238.015000",
        "094238.024000",
        "094238.028000",
        "094238.038000",
        "094238.041000",
        "094238.044000",
        "094238.047000",
        "094238.050000",
        "094238.054000",
        "094238.057000",
        "094238.060000",
        "094238.063000",
        "094238.066000",
        "094238.069000",
        "094238.073000",
        "094238.076000",
        "094337.989000",
        "094337.993000",
        "094337.996000",
        "094338.000000",
        "094338.003000",
        "094338.006000",
        "094338.010000",
        "094338.013000",
        "094338.016000",
        "094338.019000",
        "094338.028000",
        "094338.032000",
        "094338.035000",
        "094338.038000",
        "094338.041000",
        "094338.044000",
        "094338.048000",
        "094338.051000",
        "094338.054000",
        "094338.057000",
        "094338.061000",
        "094338.064000",
        "094338.067000",
        "094437.989000",
        "094437.993000",
        "094437.996000",
        "094438.000000",
        "094438.003000",
        "094438.012000",
        "094438.016000",
        "094438.019000",
        "094438.022000",
        "094438.025000",
        "094438.028000",
        "094438.032000",
        "094438.035000",
        "094438.038000",
        "094438.041000",
        "094438.044000",
        "094438.048000",
        "094438.051000",
        "094438.067000",
        "094438.071000",
        "094438.074000",
        "094438.077000",
        "094438.087000",
        "094537.989000",
        "094537.993000",
        "094537.996000",
        "094538.000000",
        "094538.003000",
        "094538.007000",
        "094538.010000",
        "094538.013000",
        "094538.016000",
        "094538.020000",
        "094538.023000",
        "094538.026000",
        "094538.029000",
        "094538.033000",
        "094538.036000",
        "094538.039000",
        "094538.042000",
        "094538.045000",
        "094538.049000",
        "094538.052000",
        "094538.055000",
        "094538.058000",
        "094538.061000",
        "094619.980000",
        "094619.984000",
        "094619.987000",
        "094619.990000",
        "094619.993000",
        "094619.996000",
        "094620.001000",
        "094620.004000",
        "094620.007000",
        "094620.010000",
        "094620.013000",
        "094620.017000",
        "094620.020000",
        "094620.023000",
        "094620.026000",
        "094620.030000"
      ],
      "InstanceCreationTime": [
        "094237.994000",
        "094237.997000",
        "094238.002000",
        "094238.005000",
        "094238.008000",
        "094238.011000",
        "094238.015000",
        "094238.024000",
        "094238.028000",
        "094238.038000",
        "094238.041000",
        "094238.044000",
        "094238.047000",
        "094238.050000",
        "094238.054000",
        "094238.057000",
        "094238.060000",
        "094238.063000",
        "094238.066000",
        "094238.069000",
        "094238.073000",
        "094238.076000",
        "094337.989000",
        "094337.993000",
        "094337.996000",
        "094338.000000",
        "094338.003000",
        "094338.006000",
        "094338.010000",
        "094338.013000",
        "094338.016000",
        "094338.019000",
        "094338.028000",
        "094338.032000",
        "094338.035000",
        "094338.038000",
        "094338.041000",
        "094338.044000",
        "094338.048000",
        "094338.051000",
        "094338.054000",
        "094338.057000",
        "094338.061000",
        "094338.064000",
        "094338.067000",
        "094437.989000",
        "094437.993000",
        "094437.996000",
        "094438.000000",
        "094438.003000",
        "094438.012000",
        "094438.016000",
        "094438.019000",
        "094438.022000",
        "094438.025000",
        "094438.028000",
        "094438.032000",
        "094438.035000",
        "094438.038000",
        "094438.041000",
        "094438.044000",
        "094438.048000",
        "094438.051000",
        "094438.067000",
        "094438.071000",
        "094438.074000",
        "094438.077000",
        "094438.087000",
        "094537.989000",
        "094537.993000",
        "094537.996000",
        "094538.000000",
        "094538.003000",
        "094538.007000",
        "094538.010000",
        "094538.013000",
        "094538.016000",
        "094538.020000",
        "094538.023000",
        "094538.026000",
        "094538.029000",
        "094538.033000",
        "094538.036000",
        "094538.039000",
        "094538.042000",
        "094538.045000",
        "094538.049000",
        "094538.052000",
        "094538.055000",
        "094538.058000",
        "094538.061000",
        "094619.980000",
        "094619.984000",
        "094619.987000",
        "094619.990000",
        "094619.993000",
        "094619.996000",
        "094620.001000",
        "094620.004000",
        "094620.007000",
        "094620.010000",
        "094620.013000",
        "094620.017000",
        "094620.020000",
        "094620.023000",
        "094620.026000",
        "094620.030000"
      ],
      "InstanceNumber": [
        1,
        2,
        3,
        4,
        5,
        6,
        7,
        8,
        9,
        10,
        11,
        12,
        13,
        14,
        15,
        16,
        17,
        18,
        19,
        20,
        21,
        22,
        23,
        24,
        25,
        26,
        27,
        28,
        29,
        30,
        31,
        32,
        33,
        34,
        35,
        36,
        37,
        38,
        39,
        40,
        41,
        42,
        43,
        44,
        45,
        46,
        47,
        48,
        49,
        50,
        51,
        52,
        53,
        54,
        55,
        56,
        57,
        58,
        59,
        60,
        61,
        62,
        63,
        64,
        65,
        66,
        67,
        68,
        69,
        70,
        71,
        72,
        73,
        74,
        75,
        76,
        77,
        78,
        79,
        80,
        81,
        82,
        83,
        84,
        85,
        86,
        87,
        88,
        89,
        90,
        91,
        92,
        93,
        94,
        95,
        96,
        97,
        98,
        99,
        100,
        101,
        102,
        103,
        104,
        105,
        106,
        107
      ],
      "LargestImagePixelValue": [
        3007,
        2918,
        648,
        709,
        752,
        800,
        718,
        748,
        707,
        627,
        704,
        2416,
        501,
        717,
        702,
        769,
        686,
        715,
        722,
        843,
        705,
        738,
        2672,
        675,
        644,
        574,
        752,
        729,
        686,
        737,
        720,
        742,
        784,
        2595,
        673,
        592,
        675,
        792,
        737,
        667,
        573,
        752,
        662,
        771,
        2695,
        637,
        672,
        747,
        751,
        518,
        719,
        686,
        725,
        666,
        753,
        2498,
        734,
        702,
        476,
        649,
        590,
        594,
        494,
        543,
        728,
        772,
        3003,
        736,
        733,
        780,
        768,
        806,
        723,
        547,
        604,
        656,
        683,
        2798,
        679,
        604,
        674,
        692,
        819,
        720,
        729,
        680,
        663,
        2606,
        512,
        527,
        680,
        776,
        668,
        648,
        731,
        621,
        727,
        2735,
        729,
        658,
        741,
        673,
        693,
        794,
        624,
        697,
        716
      ],
      "SequenceName": [
        "*ep_b0",
        "*ep_b0",
        "*ep_b1000#2",
        "*ep_b1000#3",
        "*ep_b1000#4",
        "*ep_b1000#5",
        "*ep_b1000#6",
        "*ep_b1000#7",
        "*ep_b1000#8",
        "*ep_b1000#9",
        "*ep_b1000#10",
        "*ep_b0",
        "*ep_b1000#12",
        "*ep_b1000#13",
        "*ep_b1000#14",
        "*ep_b1000#15",
        "*ep_b1000#16",
        "*ep_b1000#17",
        "*ep_b1000#18",
        "*ep_b1000#19",
        "*ep_b1000#20",
        "*ep_b1000#21",
        "*ep_b0",
        "*ep_b1000#23",
        "*ep_b1000#24",
        "*ep_b1000#25",
        "*ep_b1000#26",
        "*ep_b1000#27",
        "*ep_b1000#28",
        "*ep_b1000#29",
        "*ep_b1000#30",
        "*ep_b1000#31",
        "*ep_b1000#32",
        "*ep_b0",
        "*ep_b1000#34",
        "*ep_b1000#35",
        "*ep_b1000#36",
        "*ep_b1000#37",
        "*ep_b1000#38",
        "*ep_b1000#39",
        "*ep_b1000#40",
        "*ep_b1000#41",
        "*ep_b1000#42",
        "*ep_b1000#43",
        "*ep_b0",
        "*ep_b1000#45",
        "*ep_b1000#46",
        "*ep_b1000#47",
        "*ep_b1000#48",
        "*ep_b1000#49",
        "*ep_b1000#50",
        "*ep_b1000#51",
        "*ep_b1000#52",
        "*ep_b1000#53",
        "*ep_b1000#54",
        "*ep_b0",
        "*ep_b1000#56",
        "*ep_b1000#57",
        "*ep_b1000#58",
        "*ep_b1000#59",
        "*ep_b1000#60",
        "*ep_b1000#61",
        "*ep_b1000#62",
        "*ep_b1000#63",
        "*ep_b1000#64",
        "*ep_b1000#65",
        "*ep_b0",
        "*ep_b1000#67",
        "*ep_b1000#68",
        "*ep_b1000#69",
        "*ep_b1000#70",
        "*ep_b1000#71",
        "*ep_b1000#72",
        "*ep_b1000#73",
        "*ep_b1000#74",
        "*ep_b1000#75",
        "*ep_b1000#76",
        "*ep_b0",
        "*ep_b1000#78",
        "*ep_b1000#79",
        "*ep_b1000#80",
        "*ep_b1000#81",
        "*ep_b1000#82",
        "*ep_b1000#83",
        "*ep_b1000#84",
        "*ep_b1000#85",
        "*ep_b1000#86",
        "*ep_b0",
        "*ep_b1000#88",
        "*ep_b1000#89",
        "*ep_b1000#90",
        "*ep_b1000#91",
        "*ep_b1000#92",
        "*ep_b1000#93",
        "*ep_b1000#94",
        "*ep_b1000#95",
        "*ep_b1000#96",
        "*ep_b0",
        "*ep_b1000#98",
        "*ep_b1000#99",
        "*ep_b1000#100",
        "*ep_b1000#101",
        "*ep_b1000#102",
        "*ep_b1000#103",
        "*ep_b1000#104",
        "*ep_b1000#105",
        "*ep_b1000#106"
      ],
      "WindowCenter": [
        292.0,
        288.0,
        104.0,
        109.0,
        108.0,
        109.0,
        107.0,
        107.0,
        108.0,
        104.0,
        108.0,
        262.0,
        107.0,
        106.0,
        106.0,
        108.0,
        109.0,
        105.0,
        108.0,
        109.0,
        106.0,
        108.0,
        271.0,
        107.0,
        108.0,
        106.0,
        107.0,
        109.0,
        106.0,
        109.0,
        105.0,
        107.0,
        109.0,
        266.0,
        107.0,
        107.0,
        104.0,
        109.0,
        106.0,
        108.0,
        108.0,
        108.0,
        106.0,
        109.0,
        271.0,
        106.0,
        106.0,
        109.0,
        107.0,
        106.0,
        107.0,
        107.0,
        106.0,
        107.0,
        108.0,
        265.0,
        107.0,
        105.0,
        107.0,
        105.0,
        109.0,
        108.0,
        106.0,
        105.0,
        106.0,
        106.0,
        288.0,
        107.0,
        109.0,
        107.0,
        107.0,
        107.0,
        106.0,
        107.0,
        105.0,
        108.0,
        106.0,
        277.0,
        108.0,
        106.0,
        107.0,
        106.0,
        108.0,
        107.0,
        108.0,
        107.0,
        106.0,
        267.0,
        106.0,
        107.0,
        108.0,
        107.0,
        107.0,
        105.0,
        109.0,
        107.0,
        107.0,
        272.0,
        108.0,
        107.0,
        106.0,
        107.0,
        107.0,
        108.0,
        106.0,
        108.0,
        105.0
      ],
      "WindowWidth": [
        652.0,
        649.0,
        264.0,
        275.0,
        271.0,
        275.0,
        269.0,
        270.0,
        273.0,
        263.0,
        273.0,
        605.0,
        270.0,
        268.0,
        267.0,
        272.0,
        273.0,
        264.0,
        272.0,
        274.0,
        267.0,
        272.0,
        618.0,
        269.0,
        273.0,
        267.0,
        270.0,
        273.0,
        268.0,
        274.0,
        265.0,
        269.0,
        275.0,
        609.0,
        269.0,
        270.0,
        263.0,
        275.0,
        267.0,
        271.0,
        271.0,
        272.0,
        267.0,
        274.0,
        617.0,
        267.0,
        267.0,
        275.0,
        269.0,
        268.0,
        269.0,
        269.0,
        269.0,
        271.0,
        271.0,
        611.0,
        271.0,
        265.0,
        270.0,
        265.0,
        273.0,
        271.0,
        268.0,
        266.0,
        268.0,
        269.0,
        647.0,
        269.0,
        275.0,
        270.0,
        269.0,
        271.0,
        267.0,
        270.0,
        265.0,
        271.0,
        267.0,
        626.0,
        273.0,
        268.0,
        271.0,
        267.0,
        272.0,
        270.0,
        271.0,
        271.0,
        268.0,
        613.0,
        268.0,
        269.0,
        272.0,
        271.0,
        269.0,
        265.0,
        274.0,
        270.0,
        269.0,
        619.0,
        271.0,
        269.0,
        267.0,
        270.0,
        271.0,
        273.0,
        268.0,
        271.0,
        266.0
      ]
    },
    "slices": {}
  },
  "CoilCombinationMethod": "Adaptive Combine",
  "NonlinearGradientCorrection": false,
  "MRAcquisitionType": "2D",
  "InstitutionalDepartmentName": "Department",
  "PulseSequenceType": "Spin Echo EPI",
  "B0FieldSource": "pepolar_ses-1"
}
