{
  "AcquisitionMatrixPE": 96,
  "AcquisitionNumber": 1,
  "BandwidthPerPixelPhaseEncode": 18.939,
  "BaseResolution": 96,
  "BodyPartExamined": "BRAIN",
  "ConsistencyInfo": "N4_VE11C_LATEST_20160120",
  "ConversionSoftware": "dcm2niix",
  "ConversionSoftwareVersion": "v1.0.20171215 (OpenJPEG build) GCC6.3.0",
  "DerivedVendorReportedEchoSpacing": 0.000550011,
  "DeviceSerialNumber": "66112",
  "DwellTime": 2.2e-06,
  "EchoTime": 0.033,
  "EchoTrainLength": 96,
  "EffectiveEchoSpacing": 0.000550011,
  "FlipAngle": 59,
  "ImageOrientationPatientDICOM": [
    0.998759,
    0.0444654,
    0.0224395,
    -0.0450041,
    0.998696,
    0.0240982
  ],
  "ImageType": [
    "ORIGINAL",
    "PRIMARY",
    "FMRI",
    "NONE",
    "ND",
    "NORM",
    "MOSAIC"
  ],
  "InPlanePhaseEncodingDirectionDICOM": "COL",
  "InstitutionAddress": "Maynard_3_Hanover_NH_US_03755",
  "InstitutionName": "Dartmouth_College_-_PBS",
  "InstitutionalDepartmentName": "Department",
  "MRAcquisitionType": "2D",
  "MagneticFieldStrength": 3,
  "Manufacturer": "Siemens",
  "ManufacturersModelName": "Prisma",
  "Modality": "MR",
  "MultibandAccelerationFactor": 4,
  "PartialFourier": 1,
  "PatientPosition": "HFS",
  "PercentPhaseFOV": 100,
  "PhaseEncodingDirection": "j-",
  "PhaseEncodingSteps": 96,
  "PhaseResolution": 1,
  "PixelBandwidth": 2365,
  "ProcedureStepDescription": "Gobbini_Matteo_1038_hyperface",
  "ProtocolName": "func_run-02_task-visualmemory",
  "PulseSequenceDetails": "%SiemensSeq%_ep2d_bold",
  "ReceiveCoilActiveElements": "HEA;HEP",
  "ReceiveCoilName": "Head_32",
  "ReconMatrixPE": 96,
  "RepetitionTime": 1,
  "SAR": 0.0453759,
  "ScanOptions": "FS",
  "ScanningSequence": "EP",
  "SequenceName": "_epfid2d1_96",
  "SequenceVariant": "SK",
  "SeriesDescription": "func_run-02_task-visualmemory",
  "SeriesNumber": 14,
  "ShimSetting": [
    4140,
    -7714,
    -7318,
    639,
    -33,
    29,
    3,
    59
  ],
  "SliceThickness": 2.5,
  "SliceTiming": [
    0.735,
    0,
    0.49,
    0.0825,
    0.5725,
    0.1625,
    0.6525,
    0.3275,
    0.8175,
    0.4075,
    0.8975,
    0.245,
    0.735,
    0,
    0.49,
    0.0825,
    0.5725,
    0.1625,
    0.6525,
    0.3275,
    0.8175,
    0.4075,
    0.8975,
    0.245,
    0.735,
    0,
    0.49,
    0.0825,
    0.5725,
    0.1625,
    0.6525,
    0.3275,
    0.8175,
    0.4075,
    0.8975,
    0.245,
    0.735,
    0,
    0.49,
    0.0825,
    0.5725,
    0.1625,
    0.6525,
    0.3275,
    0.8175,
    0.4075,
    0.8975,
    0.245
  ],
  "SoftwareVersions": "syngo_MR_E11",
  "SpacingBetweenSlices": 2.5,
  "StationName": "AWP66112",
  "TotalReadoutTime": 0.0522511,
  "TxRefAmp": 224.91,
  "time": {
    "samples": {
      "AcquisitionNumber": [
        1,
        2,
        3,
        4,
        5,
        6,
        7,
        8,
        9,
        10,
        11,
        12,
        13,
        14,
        15,
        16,
        17,
        18,
        19,
        20,
        21,
        22,
        23,
        24,
        25,
        26,
        27,
        28,
        29,
        30,
        31,
        32,
        33,
        34,
        35,
        36,
        37,
        38,
        39,
        40,
        41,
        42,
        43,
        44,
        45,
        46,
        47,
        48,
        49,
        50,
        51,
        52,
        53,
        54,
        55,
        56,
        57,
        58,
        59,
        60,
        61,
        62,
        63,
        64,
        65,
        66,
        67,
        68,
        69,
        70,
        71,
        72,
        73,
        74,
        75,
        76,
        77,
        78,
        79,
        80,
        81,
        82,
        83,
        84,
        85,
        86,
        87,
        88,
        89,
        90,
        91,
        92,
        93,
        94,
        95,
        96,
        97,
        98,
        99,
        100,
        101,
        102,
        103,
        104,
        105,
        106,
        107,
        108,
        109,
        110,
        111,
        112,
        113,
        114,
        115,
        116,
        117,
        118,
        119,
        120,
        121,
        122,
        123,
        124,
        125,
        126,
        127,
        128,
        129,
        130,
        131,
        132,
        133,
        134,
        135,
        136,
        137,
        138,
        139,
        140,
        141,
        142,
        143,
        144,
        145,
        146,
        147,
        148,
        149,
        150,
        151,
        152,
        153,
        154,
        155,
        156,
        157,
        158,
        159,
        160,
        161,
        162,
        163,
        164,
        165,
        166,
        167,
        168,
        169,
        170,
        171,
        172,
        173,
        174,
        175,
        176,
        177,
        178,
        179,
        180,
        181,
        182,
        183,
        184,
        185,
        186,
        187,
        188,
        189,
        190,
        191,
        192,
        193,
        194,
        195,
        196,
        197,
        198,
        199,
        200,
        201,
        202,
        203,
        204,
        205,
        206,
        207,
        208,
        209,
        210,
        211,
        212,
        213,
        214,
        215,
        216,
        217,
        218,
        219,
        220,
        221,
        222,
        223,
        224,
        225,
        226,
        227,
        228,
        229,
        230,
        231,
        232,
        233,
        234,
        235,
        236,
        237,
        238,
        239,
        240,
        241,
        242,
        243,
        244,
        245,
        246,
        247,
        248,
        249,
        250,
        251,
        252,
        253,
        254,
        255,
        256,
        257,
        258,
        259,
        260,
        261,
        262,
        263,
        264,
        265,
        266,
        267,
        268,
        269,
        270,
        271,
        272,
        273,
        274,
        275,
        276,
        277,
        278,
        279,
        280,
        281,
        282,
        283,
        284,
        285,
        286,
        287,
        288
      ],
      "AcquisitionTime": [
        "172514.577500",
        "172515.577500",
        "172516.577500",
        "172517.577500",
        "172518.577500",
        "172519.577500",
        "172520.577500",
        "172521.577500",
        "172522.577500",
        "172523.577500",
        "172524.577500",
        "172525.577500",
        "172526.577500",
        "172527.577500",
        "172528.577500",
        "172529.577500",
        "172530.577500",
        "172531.577500",
        "172532.577500",
        "172533.577500",
        "172534.577500",
        "172535.577500",
        "172536.577500",
        "172537.577500",
        "172538.577500",
        "172539.577500",
        "172540.577500",
        "172541.577500",
        "172542.577500",
        "172543.577500",
        "172544.577500",
        "172545.577500",
        "172546.577500",
        "172547.577500",
        "172548.577500",
        "172549.577500",
        "172550.577500",
        "172551.577500",
        "172552.577500",
        "172553.577500",
        "172554.577500",
        "172555.577500",
        "172556.577500",
        "172557.577500",
        "172558.577500",
        "172559.577500",
        "172600.577500",
        "172601.577500",
        "172602.577500",
        "172603.577500",
        "172604.577500",
        "172605.577500",
        "172606.577500",
        "172607.577500",
        "172608.577500",
        "172609.577500",
        "172610.577500",
        "172611.577500",
        "172612.577500",
        "172613.577500",
        "172614.577500",
        "172615.577500",
        "172616.577500",
        "172617.577500",
        "172618.577500",
        "172619.577500",
        "172620.577500",
        "172621.577500",
        "172622.577500",
        "172623.577500",
        "172624.577500",
        "172625.577500",
        "172626.577500",
        "172627.577500",
        "172628.577500",
        "172629.577500",
        "172630.577500",
        "172631.577500",
        "172632.577500",
        "172633.577500",
        "172634.577500",
        "172635.577500",
        "172636.577500",
        "172637.577500",
        "172638.577500",
        "172639.577500",
        "172640.577500",
        "172641.577500",
        "172642.577500",
        "172643.577500",
        "172644.577500",
        "172645.577500",
        "172646.577500",
        "172647.577500",
        "172648.577500",
        "172649.577500",
        "172650.577500",
        "172651.577500",
        "172652.577500",
        "172653.577500",
        "172654.577500",
        "172655.577500",
        "172656.577500",
        "172657.577500",
        "172658.577500",
        "172659.577500",
        "172700.577500",
        "172701.577500",
        "172702.577500",
        "172703.577500",
        "172704.577500",
        "172705.577500",
        "172706.577500",
        "172707.577500",
        "172708.577500",
        "172709.577500",
        "172710.577500",
        "172711.577500",
        "172712.577500",
        "172713.577500",
        "172714.577500",
        "172715.577500",
        "172716.577500",
        "172717.577500",
        "172718.577500",
        "172719.577500",
        "172720.577500",
        "172721.577500",
        "172722.577500",
        "172723.577500",
        "172724.577500",
        "172725.577500",
        "172726.577500",
        "172727.577500",
        "172728.577500",
        "172729.577500",
        "172730.577500",
        "172731.577500",
        "172732.577500",
        "172733.577500",
        "172734.577500",
        "172735.577500",
        "172736.577500",
        "172737.577500",
        "172738.577500",
        "172739.577500",
        "172740.577500",
        "172741.577500",
        "172742.577500",
        "172743.577500",
        "172744.577500",
        "172745.577500",
        "172746.577500",
        "172747.577500",
        "172748.577500",
        "172749.577500",
        "172750.577500",
        "172751.577500",
        "172752.577500",
        "172753.577500",
        "172754.577500",
        "172755.577500",
        "172756.577500",
        "172757.577500",
        "172758.577500",
        "172759.577500",
        "172800.577500",
        "172801.577500",
        "172802.577500",
        "172803.577500",
        "172804.577500",
        "172805.577500",
        "172806.577500",
        "172807.577500",
        "172808.577500",
        "172809.577500",
        "172810.577500",
        "172811.577500",
        "172812.577500",
        "172813.577500",
        "172814.577500",
        "172815.577500",
        "172816.577500",
        "172817.577500",
        "172818.577500",
        "172819.577500",
        "172820.577500",
        "172821.577500",
        "172822.577500",
        "172823.577500",
        "172824.577500",
        "172825.577500",
        "172826.577500",
        "172827.577500",
        "172828.577500",
        "172829.577500",
        "172830.577500",
        "172831.577500",
        "172832.577500",
        "172833.577500",
        "172834.577500",
        "172835.577500",
        "172836.577500",
        "172837.577500",
        "172838.577500",
        "172839.577500",
        "172840.577500",
        "172841.577500",
        "172842.577500",
        "172843.577500",
        "172844.577500",
        "172845.577500",
        "172846.577500",
        "172847.577500",
        "172848.577500",
        "172849.577500",
        "172850.577500",
        "172851.577500",
        "172852.577500",
        "172853.577500",
        "172854.577500",
        "172855.577500",
        "172856.577500",
        "172857.577500",
        "172858.577500",
        "172859.577500",
        "172900.577500",
        "172901.577500",
        "172902.577500",
        "172903.577500",
        "172904.577500",
        "172905.577500",
        "172906.577500",
        "172907.577500",
        "172908.577500",
        "172909.577500",
        "172910.577500",
        "172911.577500",
        "172912.577500",
        "172913.577500",
        "172914.577500",
        "172915.577500",
        "172916.577500",
        "172917.577500",
        "172918.577500",
        "172919.577500",
        "172920.577500",
        "172921.577500",
        "172922.577500",
        "172923.577500",
        "172924.577500",
        "172925.577500",
        "172926.577500",
        "172927.577500",
        "172928.577500",
        "172929.577500",
        "172930.577500",
        "172931.577500",
        "172932.577500",
        "172933.577500",
        "172934.577500",
        "172935.577500",
        "172936.577500",
        "172937.577500",
        "172938.577500",
        "172939.577500",
        "172940.577500",
        "172941.577500",
        "172942.577500",
        "172943.577500",
        "172944.577500",
        "172945.577500",
        "172946.577500",
        "172947.577500",
        "172948.577500",
        "172949.577500",
        "172950.577500",
        "172951.577500",
        "172952.577500",
        "172953.577500",
        "172954.577500",
        "172955.577500",
        "172956.577500",
        "172957.577500",
        "172958.577500",
        "172959.577500",
        "173000.577500",
        "173001.577500"
      ],
      "ContentTime": [
        "172515.592000",
        "172516.406000",
        "172517.387000",
        "172518.411000",
        "172519.397000",
        "172520.394000",
        "172521.400000",
        "172522.403000",
        "172523.447000",
        "172524.439000",
        "172525.394000",
        "172526.424000",
        "172527.401000",
        "172528.392000",
        "172529.400000",
        "172530.391000",
        "172531.411000",
        "172532.407000",
        "172533.394000",
        "172534.392000",
        "172535.393000",
        "172536.438000",
        "172537.433000",
        "172538.396000",
        "172539.390000",
        "172540.392000",
        "172541.389000",
        "172542.395000",
        "172543.410000",
        "172544.394000",
        "172545.389000",
        "172546.408000",
        "172547.396000",
        "172548.409000",
        "172549.397000",
        "172550.391000",
        "172551.387000",
        "172552.408000",
        "172553.440000",
        "172554.406000",
        "172555.416000",
        "172556.394000",
        "172557.409000",
        "172558.410000",
        "172559.379000",
        "172600.421000",
        "172601.413000",
        "172602.452000",
        "172603.416000",
        "172604.401000",
        "172605.384000",
        "172606.395000",
        "172607.437000",
        "172608.411000",
        "172609.408000",
        "172610.404000",
        "172611.395000",
        "172612.389000",
        "172613.372000",
        "172614.395000",
        "172615.403000",
        "172616.390000",
        "172617.380000",
        "172618.376000",
        "172619.395000",
        "172620.427000",
        "172621.418000",
        "172622.399000",
        "172623.414000",
        "172624.419000",
        "172625.403000",
        "172626.429000",
        "172627.448000",
        "172628.407000",
        "172629.412000",
        "172630.396000",
        "172631.391000",
        "172632.402000",
        "172633.499000",
        "172634.389000",
        "172635.397000",
        "172636.427000",
        "172637.405000",
        "172638.403000",
        "172639.380000",
        "172640.436000",
        "172641.376000",
        "172642.417000",
        "172643.392000",
        "172644.422000",
        "172645.384000",
        "172646.394000",
        "172647.389000",
        "172648.450000",
        "172649.394000",
        "172650.399000",
        "172651.400000",
        "172652.424000",
        "172653.441000",
        "172654.380000",
        "172655.388000",
        "172656.416000",
        "172657.408000",
        "172658.474000",
        "172659.435000",
        "172700.423000",
        "172701.416000",
        "172702.395000",
        "172703.389000",
        "172704.418000",
        "172705.396000",
        "172706.396000",
        "172707.406000",
        "172708.399000",
        "172709.399000",
        "172710.405000",
        "172711.399000",
        "172712.425000",
        "172713.419000",
        "172714.407000",
        "172715.419000",
        "172716.388000",
        "172717.407000",
        "172718.403000",
        "172719.402000",
        "172720.427000",
        "172721.397000",
        "172722.414000",
        "172723.411000",
        "172724.392000",
        "172725.392000",
        "172726.429000",
        "172727.425000",
        "172728.390000",
        "172729.388000",
        "172730.410000",
        "172731.407000",
        "172732.397000",
        "172733.405000",
        "172734.408000",
        "172735.419000",
        "172736.433000",
        "172737.377000",
        "172738.393000",
        "172739.406000",
        "172740.420000",
        "172741.400000",
        "172742.407000",
        "172743.419000",
        "172744.402000",
        "172745.407000",
        "172746.400000",
        "172747.419000",
        "172748.411000",
        "172749.494000",
        "172750.393000",
        "172751.390000",
        "172752.412000",
        "172753.422000",
        "172754.400000",
        "172755.408000",
        "172756.404000",
        "172757.396000",
        "172758.413000",
        "172759.413000",
        "172800.418000",
        "172801.395000",
        "172802.384000",
        "172803.387000",
        "172804.395000",
        "172805.413000",
        "172806.393000",
        "172807.415000",
        "172808.399000",
        "172809.404000",
        "172810.395000",
        "172811.394000",
        "172812.387000",
        "172813.388000",
        "172814.407000",
        "172815.391000",
        "172816.389000",
        "172817.374000",
        "172818.399000",
        "172819.403000",
        "172820.401000",
        "172821.400000",
        "172822.399000",
        "172823.413000",
        "172824.403000",
        "172825.378000",
        "172826.399000",
        "172827.403000",
        "172828.388000",
        "172829.431000",
        "172830.415000",
        "172831.421000",
        "172832.404000",
        "172833.401000",
        "172834.396000",
        "172835.407000",
        "172836.398000",
        "172837.410000",
        "172838.383000",
        "172839.394000",
        "172840.411000",
        "172841.422000",
        "172842.407000",
        "172843.440000",
        "172844.421000",
        "172845.411000",
        "172846.407000",
        "172847.401000",
        "172848.380000",
        "172849.425000",
        "172850.415000",
        "172851.397000",
        "172852.394000",
        "172853.415000",
        "172854.400000",
        "172855.426000",
        "172856.398000",
        "172857.388000",
        "172858.414000",
        "172859.399000",
        "172900.422000",
        "172901.406000",
        "172902.416000",
        "172903.385000",
        "172904.394000",
        "172905.387000",
        "172906.408000",
        "172907.371000",
        "172908.412000",
        "172909.402000",
        "172910.394000",
        "172911.426000",
        "172912.390000",
        "172913.411000",
        "172914.404000",
        "172915.387000",
        "172916.414000",
        "172917.411000",
        "172918.393000",
        "172919.444000",
        "172920.421000",
        "172921.431000",
        "172922.398000",
        "172923.427000",
        "172924.469000",
        "172925.433000",
        "172926.439000",
        "172927.432000",
        "172928.451000",
        "172929.424000",
        "172930.449000",
        "172931.423000",
        "172932.405000",
        "172933.428000",
        "172934.414000",
        "172935.419000",
        "172936.439000",
        "172937.450000",
        "172938.472000",
        "172939.399000",
        "172940.404000",
        "172941.430000",
        "172942.431000",
        "172943.419000",
        "172944.441000",
        "172945.407000",
        "172946.395000",
        "172947.412000",
        "172948.412000",
        "172949.421000",
        "172950.399000",
        "172951.393000",
        "172952.420000",
        "172953.426000",
        "172954.428000",
        "172955.431000",
        "172956.404000",
        "172957.425000",
        "172958.400000",
        "172959.383000",
        "173000.407000",
        "173001.419000",
        "173002.432000"
      ],
      "InstanceCreationTime": [
        "172515.592000",
        "172516.406000",
        "172517.387000",
        "172518.411000",
        "172519.397000",
        "172520.394000",
        "172521.400000",
        "172522.403000",
        "172523.447000",
        "172524.439000",
        "172525.394000",
        "172526.424000",
        "172527.401000",
        "172528.392000",
        "172529.400000",
        "172530.391000",
        "172531.411000",
        "172532.407000",
        "172533.394000",
        "172534.392000",
        "172535.393000",
        "172536.438000",
        "172537.433000",
        "172538.396000",
        "172539.390000",
        "172540.392000",
        "172541.389000",
        "172542.395000",
        "172543.410000",
        "172544.394000",
        "172545.389000",
        "172546.408000",
        "172547.396000",
        "172548.409000",
        "172549.397000",
        "172550.391000",
        "172551.387000",
        "172552.408000",
        "172553.440000",
        "172554.406000",
        "172555.416000",
        "172556.394000",
        "172557.409000",
        "172558.410000",
        "172559.379000",
        "172600.421000",
        "172601.413000",
        "172602.452000",
        "172603.416000",
        "172604.401000",
        "172605.384000",
        "172606.395000",
        "172607.437000",
        "172608.411000",
        "172609.408000",
        "172610.404000",
        "172611.395000",
        "172612.389000",
        "172613.372000",
        "172614.395000",
        "172615.403000",
        "172616.390000",
        "172617.380000",
        "172618.376000",
        "172619.395000",
        "172620.427000",
        "172621.418000",
        "172622.399000",
        "172623.414000",
        "172624.419000",
        "172625.403000",
        "172626.429000",
        "172627.448000",
        "172628.407000",
        "172629.412000",
        "172630.396000",
        "172631.391000",
        "172632.402000",
        "172633.499000",
        "172634.389000",
        "172635.397000",
        "172636.427000",
        "172637.405000",
        "172638.403000",
        "172639.380000",
        "172640.436000",
        "172641.376000",
        "172642.417000",
        "172643.392000",
        "172644.422000",
        "172645.384000",
        "172646.394000",
        "172647.389000",
        "172648.450000",
        "172649.394000",
        "172650.399000",
        "172651.400000",
        "172652.424000",
        "172653.441000",
        "172654.380000",
        "172655.388000",
        "172656.416000",
        "172657.408000",
        "172658.474000",
        "172659.435000",
        "172700.423000",
        "172701.416000",
        "172702.395000",
        "172703.389000",
        "172704.418000",
        "172705.396000",
        "172706.396000",
        "172707.406000",
        "172708.399000",
        "172709.399000",
        "172710.405000",
        "172711.399000",
        "172712.425000",
        "172713.419000",
        "172714.407000",
        "172715.419000",
        "172716.388000",
        "172717.407000",
        "172718.403000",
        "172719.402000",
        "172720.427000",
        "172721.397000",
        "172722.414000",
        "172723.411000",
        "172724.392000",
        "172725.392000",
        "172726.429000",
        "172727.425000",
        "172728.390000",
        "172729.388000",
        "172730.410000",
        "172731.407000",
        "172732.397000",
        "172733.405000",
        "172734.408000",
        "172735.419000",
        "172736.433000",
        "172737.377000",
        "172738.393000",
        "172739.406000",
        "172740.420000",
        "172741.400000",
        "172742.407000",
        "172743.419000",
        "172744.402000",
        "172745.407000",
        "172746.400000",
        "172747.419000",
        "172748.411000",
        "172749.494000",
        "172750.393000",
        "172751.390000",
        "172752.412000",
        "172753.422000",
        "172754.400000",
        "172755.408000",
        "172756.404000",
        "172757.396000",
        "172758.413000",
        "172759.413000",
        "172800.418000",
        "172801.395000",
        "172802.384000",
        "172803.387000",
        "172804.395000",
        "172805.413000",
        "172806.393000",
        "172807.415000",
        "172808.399000",
        "172809.404000",
        "172810.395000",
        "172811.394000",
        "172812.387000",
        "172813.388000",
        "172814.407000",
        "172815.391000",
        "172816.389000",
        "172817.374000",
        "172818.399000",
        "172819.403000",
        "172820.401000",
        "172821.400000",
        "172822.399000",
        "172823.413000",
        "172824.403000",
        "172825.378000",
        "172826.399000",
        "172827.403000",
        "172828.388000",
        "172829.431000",
        "172830.415000",
        "172831.421000",
        "172832.404000",
        "172833.401000",
        "172834.396000",
        "172835.407000",
        "172836.398000",
        "172837.410000",
        "172838.383000",
        "172839.394000",
        "172840.411000",
        "172841.422000",
        "172842.407000",
        "172843.440000",
        "172844.421000",
        "172845.411000",
        "172846.407000",
        "172847.401000",
        "172848.380000",
        "172849.425000",
        "172850.415000",
        "172851.397000",
        "172852.394000",
        "172853.415000",
        "172854.400000",
        "172855.426000",
        "172856.398000",
        "172857.388000",
        "172858.414000",
        "172859.399000",
        "172900.422000",
        "172901.406000",
        "172902.416000",
        "172903.385000",
        "172904.394000",
        "172905.387000",
        "172906.408000",
        "172907.371000",
        "172908.412000",
        "172909.402000",
        "172910.394000",
        "172911.426000",
        "172912.390000",
        "172913.411000",
        "172914.404000",
        "172915.387000",
        "172916.414000",
        "172917.411000",
        "172918.393000",
        "172919.444000",
        "172920.421000",
        "172921.431000",
        "172922.398000",
        "172923.427000",
        "172924.469000",
        "172925.433000",
        "172926.439000",
        "172927.432000",
        "172928.451000",
        "172929.424000",
        "172930.449000",
        "172931.423000",
        "172932.405000",
        "172933.428000",
        "172934.414000",
        "172935.419000",
        "172936.439000",
        "172937.450000",
        "172938.472000",
        "172939.399000",
        "172940.404000",
        "172941.430000",
        "172942.431000",
        "172943.419000",
        "172944.441000",
        "172945.407000",
        "172946.395000",
        "172947.412000",
        "172948.412000",
        "172949.421000",
        "172950.399000",
        "172951.393000",
        "172952.420000",
        "172953.426000",
        "172954.428000",
        "172955.431000",
        "172956.404000",
        "172957.425000",
        "172958.400000",
        "172959.383000",
        "173000.407000",
        "173001.419000",
        "173002.432000"
      ],
      "InstanceNumber": [
        1,
        2,
        3,
        4,
        5,
        6,
        7,
        8,
        9,
        10,
        11,
        12,
        13,
        14,
        15,
        16,
        17,
        18,
        19,
        20,
        21,
        22,
        23,
        24,
        25,
        26,
        27,
        28,
        29,
        30,
        31,
        32,
        33,
        34,
        35,
        36,
        37,
        38,
        39,
        40,
        41,
        42,
        43,
        44,
        45,
        46,
        47,
        48,
        49,
        50,
        51,
        52,
        53,
        54,
        55,
        56,
        57,
        58,
        59,
        60,
        61,
        62,
        63,
        64,
        65,
        66,
        67,
        68,
        69,
        70,
        71,
        72,
        73,
        74,
        75,
        76,
        77,
        78,
        79,
        80,
        81,
        82,
        83,
        84,
        85,
        86,
        87,
        88,
        89,
        90,
        91,
        92,
        93,
        94,
        95,
        96,
        97,
        98,
        99,
        100,
        101,
        102,
        103,
        104,
        105,
        106,
        107,
        108,
        109,
        110,
        111,
        112,
        113,
        114,
        115,
        116,
        117,
        118,
        119,
        120,
        121,
        122,
        123,
        124,
        125,
        126,
        127,
        128,
        129,
        130,
        131,
        132,
        133,
        134,
        135,
        136,
        137,
        138,
        139,
        140,
        141,
        142,
        143,
        144,
        145,
        146,
        147,
        148,
        149,
        150,
        151,
        152,
        153,
        154,
