{
  "AcquisitionMatrixPE": 96,
  "AcquisitionNumber": 1,
  "BandwidthPerPixelPhaseEncode": 18.939,
  "BaseResolution": 96,
  "BodyPartExamined": "BRAIN",
  "ConsistencyInfo": "N4_VE11C_LATEST_20160120",
  "ConversionSoftware": "dcm2niix",
  "ConversionSoftwareVersion": "v1.0.20171215 (OpenJPEG build) GCC6.3.0",
  "DerivedVendorReportedEchoSpacing": 0.000550011,
  "DeviceSerialNumber": "66112",
  "DwellTime": 2.2e-06,
  "EchoTime": 0.033,
  "EchoTrainLength": 96,
  "EffectiveEchoSpacing": 0.000550011,
  "FlipAngle": 59,
  "ImageOrientationPatientDICOM": [
    0.998759,
    0.0444654,
    0.0224395,
    -0.0450041,
    0.998696,
    0.0240982
  ],
  "ImageType": [
    "ORIGINAL",
    "PRIMARY",
    "FMRI",
    "NONE",
    "ND",
    "NORM",
    "MOSAIC"
  ],
  "InPlanePhaseEncodingDirectionDICOM": "COL",
  "InstitutionAddress": "Maynard_3_Hanover_NH_US_03755",
  "InstitutionName": "Dartmouth_College_-_PBS",
  "InstitutionalDepartmentName": "Department",
  "MRAcquisitionType": "2D",
  "MagneticFieldStrength": 3,
  "Manufacturer": "Siemens",
  "ManufacturersModelName": "Prisma",
  "Modality": "MR",
  "MultibandAccelerationFactor": 4,
  "PatientPosition": "HFS",
  "PercentPhaseFOV": 100,
  "PhaseEncodingDirection": "j-",
  "PhaseEncodingSteps": 96,
  "PhaseResolution": 1,
  "PixelBandwidth": 2365,
  "ProcedureStepDescription": "Gobbini_Matteo_1038_hyperface",
  "ProtocolName": "func_run-07_task-visualmemory",
  "PulseSequenceDetails": "%SiemensSeq%_ep2d_bold",
  "ReceiveCoilActiveElements": "HEA;HEP",
  "ReceiveCoilName": "Head_32",
  "ReconMatrixPE": 96,
  "RepetitionTime": 1,
  "SAR": 0.0453759,
  "ScanOptions": "FS",
  "ScanningSequence": "EP",
  "SequenceName": "_epfid2d1_96",
  "SequenceVariant": "SK",
  "SeriesDescription": "func_run-07_task-visualmemory",
  "SeriesNumber": 49,
  "ShimSetting": [
    4140,
    -7714,
    -7318,
    639,
    -33,
    29,
    3,
    59
  ],
  "SliceThickness": 2.5,
  "SliceTiming": [
    0.735,
    0,
    0.49,
    0.0825,
    0.57,
    0.1625,
    0.6525,
    0.3275,
    0.815,
    0.4075,
    0.8975,
    0.245,
    0.735,
    0,
    0.49,
    0.0825,
    0.57,
    0.1625,
    0.6525,
    0.3275,
    0.815,
    0.4075,
    0.8975,
    0.245,
    0.735,
    0,
    0.49,
    0.0825,
    0.57,
    0.1625,
    0.6525,
    0.3275,
    0.815,
    0.4075,
    0.8975,
    0.245,
    0.735,
    0,
    0.49,
    0.0825,
    0.57,
    0.1625,
    0.6525,
    0.3275,
    0.815,
    0.4075,
    0.8975,
    0.245
  ],
  "SoftwareVersions": "syngo_MR_E11",
  "SpacingBetweenSlices": 2.5,
  "StationName": "AWP66112",
  "TotalReadoutTime": 0.0522511,
  "TxRefAmp": 224.91,
  "time": {
    "samples": {
      "AcquisitionNumber": [
        1,
        2,
        3,
        4,
        5,
        6,
        7,
        8,
        9,
        10,
        11,
        12,
        13,
        14,
        15,
        16,
        17,
        18,
        19,
        20,
        21,
        22,
        23,
        24,
        25,
        26,
        27,
        28,
        29,
        30,
        31,
        32,
        33,
        34,
        35,
        36,
        37,
        38,
        39,
        40,
        41,
        42,
        43,
        44,
        45,
        46,
        47,
        48,
        49,
        50,
        51,
        52,
        53,
        54,
        55,
        56,
        57,
        58,
        59,
        60,
        61,
        62,
        63,
        64,
        65,
        66,
        67,
        68,
        69,
        70,
        71,
        72,
        73,
        74,
        75,
        76,
        77,
        78,
        79,
        80,
        81,
        82,
        83,
        84,
        85,
        86,
        87,
        88,
        89,
        90,
        91,
        92,
        93,
        94,
        95,
        96,
        97,
        98,
        99,
        100,
        101,
        102,
        103,
        104,
        105,
        106,
        107,
        108,
        109,
        110,
        111,
        112,
        113,
        114,
        115,
        116,
        117,
        118,
        119,
        120,
        121,
        122,
        123,
        124,
        125,
        126,
        127,
        128,
        129,
        130,
        131,
        132,
        133,
        134,
        135,
        136,
        137,
        138,
        139,
        140,
        141,
        142,
        143,
        144,
        145,
        146,
        147,
        148,
        149,
        150,
        151,
        152,
        153,
        154,
        155,
        156,
        157,
        158,
        159,
        160,
        161,
        162,
        163,
        164,
        165,
        166,
        167,
        168,
        169,
        170,
        171,
        172,
        173,
        174,
        175,
        176,
        177,
        178,
        179,
        180,
        181,
        182,
        183,
        184,
        185,
        186,
        187,
        188,
        189,
        190,
        191,
        192,
        193,
        194,
        195,
        196,
        197,
        198,
        199,
        200,
        201,
        202,
        203,
        204,
        205,
        206,
        207,
        208,
        209,
        210,
        211,
        212,
        213,
        214,
        215,
        216,
        217,
        218,
        219,
        220,
        221,
        222,
        223,
        224,
        225,
        226,
        227,
        228,
        229,
        230,
        231,
        232,
        233,
        234,
        235,
        236,
        237,
        238,
        239,
        240,
        241,
        242,
        243,
        244,
        245,
        246,
        247,
        248,
        249,
        250,
        251,
        252,
        253,
        254,
        255,
        256,
        257,
        258,
        259,
        260,
        261,
        262,
        263,
        264,
        265,
        266,
        267,
        268,
        269,
        270,
        271,
        272,
        273,
        274,
        275,
        276,
        277,
        278,
        279,
        280,
        281,
        282,
        283,
        284,
        285,
        286,
        287,
        288
      ],
      "AcquisitionTime": [
        "175207.985000",
        "175208.985000",
        "175209.985000",
        "175210.985000",
        "175211.985000",
        "175212.985000",
        "175213.985000",
        "175214.985000",
        "175215.985000",
        "175216.985000",
        "175217.985000",
        "175218.985000",
        "175219.985000",
        "175220.985000",
        "175221.985000",
        "175222.985000",
        "175223.985000",
        "175224.985000",
        "175225.985000",
        "175226.985000",
        "175227.985000",
        "175228.985000",
        "175229.985000",
        "175230.985000",
        "175231.985000",
        "175232.985000",
        "175233.985000",
        "175234.985000",
        "175235.985000",
        "175236.985000",
        "175237.985000",
        "175238.985000",
        "175239.985000",
        "175240.985000",
        "175241.985000",
        "175242.985000",
        "175243.985000",
        "175244.985000",
        "175245.985000",
        "175246.985000",
        "175247.985000",
        "175248.985000",
        "175249.985000",
        "175250.985000",
        "175251.985000",
        "175252.985000",
        "175253.985000",
        "175254.985000",
        "175255.985000",
        "175256.985000",
        "175257.985000",
        "175258.985000",
        "175259.985000",
        "175300.985000",
        "175301.985000",
        "175302.985000",
        "175303.985000",
        "175304.985000",
        "175305.985000",
        "175306.985000",
        "175307.985000",
        "175308.985000",
        "175309.985000",
        "175310.985000",
        "175311.985000",
        "175312.985000",
        "175313.985000",
        "175314.985000",
        "175315.985000",
        "175316.985000",
        "175317.985000",
        "175318.985000",
        "175319.985000",
        "175320.985000",
        "175321.985000",
        "175322.985000",
        "175323.985000",
        "175324.985000",
        "175325.985000",
        "175326.985000",
        "175327.985000",
        "175328.985000",
        "175329.985000",
        "175330.985000",
        "175331.985000",
        "175332.985000",
        "175333.985000",
        "175334.985000",
        "175335.985000",
        "175336.985000",
        "175337.985000",
        "175338.985000",
        "175339.985000",
        "175340.985000",
        "175341.985000",
        "175342.985000",
        "175343.985000",
        "175344.985000",
        "175345.985000",
        "175346.985000",
        "175347.985000",
        "175348.985000",
        "175349.985000",
        "175350.985000",
        "175351.985000",
        "175352.985000",
        "175353.985000",
        "175354.985000",
        "175355.985000",
        "175356.985000",
        "175357.985000",
        "175358.985000",
        "175359.985000",
        "175400.985000",
        "175401.985000",
        "175402.985000",
        "175403.985000",
        "175404.985000",
        "175405.985000",
        "175406.985000",
        "175407.985000",
        "175408.985000",
        "175409.985000",
        "175410.985000",
        "175411.985000",
        "175412.985000",
        "175413.985000",
        "175414.985000",
        "175415.985000",
        "175416.985000",
        "175417.985000",
        "175418.985000",
        "175419.985000",
        "175420.985000",
        "175421.985000",
        "175422.985000",
        "175423.985000",
        "175424.985000",
        "175425.985000",
        "175426.985000",
        "175427.985000",
        "175428.985000",
        "175429.985000",
        "175430.985000",
        "175431.985000",
        "175432.985000",
        "175433.985000",
        "175434.985000",
        "175435.985000",
        "175436.985000",
        "175437.985000",
        "175438.985000",
        "175439.985000",
        "175440.985000",
        "175441.985000",
        "175442.985000",
        "175443.985000",
        "175444.985000",
        "175445.985000",
        "175446.985000",
        "175447.985000",
        "175448.985000",
        "175449.985000",
        "175450.985000",
        "175451.985000",
        "175452.985000",
        "175453.985000",
        "175454.985000",
        "175455.985000",
        "175456.985000",
        "175457.985000",
        "175458.985000",
        "175459.985000",
        "175500.985000",
        "175501.985000",
        "175502.985000",
        "175503.985000",
        "175504.985000",
        "175505.985000",
        "175506.985000",
        "175507.985000",
        "175508.985000",
        "175509.985000",
        "175510.985000",
        "175511.985000",
        "175512.985000",
        "175513.985000",
        "175514.985000",
        "175515.985000",
        "175516.985000",
        "175517.985000",
        "175518.985000",
        "175519.985000",
        "175520.985000",
        "175521.985000",
        "175522.985000",
        "175523.985000",
        "175524.985000",
        "175525.985000",
        "175526.985000",
        "175527.985000",
        "175528.985000",
        "175529.985000",
        "175530.985000",
        "175531.985000",
        "175532.985000",
        "175533.985000",
        "175534.985000",
        "175535.985000",
        "175536.985000",
        "175537.985000",
        "175538.985000",
        "175539.985000",
        "175540.985000",
        "175541.985000",
        "175542.985000",
        "175543.985000",
        "175544.985000",
        "175545.985000",
        "175546.985000",
        "175547.985000",
        "175548.985000",
        "175549.985000",
        "175550.985000",
        "175551.985000",
        "175552.985000",
        "175553.985000",
        "175554.985000",
        "175555.985000",
        "175556.985000",
        "175557.985000",
        "175558.985000",
        "175559.985000",
        "175600.985000",
        "175601.985000",
        "175602.985000",
        "175603.985000",
        "175604.985000",
        "175605.985000",
        "175606.985000",
        "175607.985000",
        "175608.985000",
        "175609.985000",
        "175610.985000",
        "175611.985000",
        "175612.985000",
        "175613.985000",
        "175614.985000",
        "175615.985000",
        "175616.985000",
        "175617.985000",
        "175618.985000",
        "175619.985000",
        "175620.985000",
        "175621.985000",
        "175622.985000",
        "175623.985000",
        "175624.985000",
        "175625.985000",
        "175626.985000",
        "175627.985000",
        "175628.985000",
        "175629.985000",
        "175630.985000",
        "175631.985000",
        "175632.985000",
        "175633.985000",
        "175634.985000",
        "175635.985000",
        "175636.985000",
        "175637.985000",
        "175638.985000",
        "175639.985000",
        "175640.985000",
        "175641.985000",
        "175642.985000",
        "175643.985000",
        "175644.985000",
        "175645.985000",
        "175646.985000",
        "175647.985000",
        "175648.985000",
        "175649.985000",
        "175650.985000",
        "175651.985000",
        "175652.985000",
        "175653.985000",
        "175654.985000"
      ],
      "ContentTime": [
        "175209.460000",
        "175210.300000",
        "175211.319000",
        "175212.320000",
        "175213.310000",
        "175214.316000",
        "175215.327000",
        "175216.296000",
        "175217.311000",
        "175218.367000",
        "175219.332000",
        "175220.353000",
        "175221.339000",
        "175222.310000",
        "175223.322000",
        "175224.337000",
        "175225.332000",
        "175226.331000",
        "175227.354000",
        "175228.370000",
        "175229.301000",
        "175230.321000",
        "175231.325000",
        "175232.316000",
        "175233.341000",
        "175234.303000",
        "175235.300000",
        "175236.302000",
        "175237.335000",
        "175238.302000",
        "175239.294000",
        "175240.330000",
        "175241.306000",
        "175242.297000",
        "175243.304000",
        "175244.283000",
        "175245.318000",
        "175246.308000",
        "175247.310000",
        "175248.311000",
        "175249.318000",
        "175250.312000",
        "175251.299000",
        "175252.295000",
        "175253.298000",
        "175254.309000",
        "175255.309000",
        "175256.316000",
        "175257.321000",
        "175258.302000",
        "175259.327000",
        "175300.334000",
        "175301.317000",
        "175302.303000",
        "175303.312000",
        "175304.302000",
        "175305.320000",
        "175306.309000",
        "175307.307000",
        "175308.307000",
        "175309.350000",
        "175310.340000",
        "175311.324000",
        "175312.335000",
        "175313.311000",
        "175314.329000",
        "175315.302000",
        "175316.350000",
        "175317.315000",
        "175318.310000",
        "175319.321000",
        "175320.305000",
        "175321.328000",
        "175322.319000",
        "175323.323000",
        "175324.316000",
        "175325.302000",
        "175326.324000",
        "175327.307000",
        "175328.302000",
        "175329.313000",
        "175330.297000",
        "175331.302000",
        "175332.321000",
        "175333.322000",
        "175334.311000",
        "175335.304000",
        "175336.288000",
        "175337.312000",
        "175338.319000",
        "175339.329000",
        "175340.303000",
        "175341.303000",
        "175342.305000",
        "175343.307000",
        "175344.310000",
        "175345.304000",
        "175346.313000",
        "175347.294000",
        "175348.310000",
        "175349.332000",
        "175350.322000",
        "175351.338000",
        "175352.306000",
        "175353.308000",
        "175354.310000",
        "175355.316000",
        "175356.338000",
        "175357.374000",
        "175358.324000",
        "175359.287000",
        "175400.331000",
        "175401.301000",
        "175402.304000",
        "175403.329000",
        "175404.346000",
        "175405.369000",
        "175406.328000",
        "175407.324000",
        "175408.329000",
        "175409.325000",
        "175410.335000",
        "175411.319000",
        "175412.306000",
        "175413.284000",
        "175414.313000",
        "175415.304000",
        "175416.330000",
        "175417.325000",
        "175418.332000",
        "175419.313000",
        "175420.333000",
        "175421.325000",
        "175422.306000",
        "175423.295000",
        "175424.343000",
        "175425.314000",
        "175426.299000",
        "175427.330000",
        "175428.318000",
        "175429.315000",
        "175430.327000",
        "175431.329000",
        "175432.317000",
        "175433.303000",
        "175434.321000",
        "175435.289000",
        "175436.322000",
        "175437.341000",
        "175438.362000",
        "175439.338000",
        "175440.307000",
        "175441.320000",
        "175442.339000",
        "175443.330000",
        "175444.324000",
        "175445.333000",
        "175446.306000",
        "175447.342000",
        "175448.307000",
        "175449.327000",
        "175450.303000",
        "175451.320000",
        "175452.347000",
        "175453.312000",
        "175454.314000",
        "175455.328000",
        "175456.295000",
        "175457.310000",
        "175458.320000",
        "175459.299000",
        "175500.314000",
        "175501.378000",
        "175502.309000",
        "175503.321000",
        "175504.319000",
        "175505.327000",
        "175506.329000",
        "175507.326000",
        "175508.304000",
        "175509.309000",
        "175510.304000",
        "175511.316000",
        "175512.311000",
        "175513.327000",
        "175514.318000",
        "175515.303000",
        "175516.353000",
        "175517.305000",
        "175518.322000",
        "175519.335000",
        "175520.299000",
        "175521.320000",
        "175522.313000",
        "175523.322000",
        "175524.308000",
        "175525.309000",
        "175526.323000",
        "175527.330000",
        "175528.320000",
        "175529.328000",
        "175530.320000",
        "175531.369000",
        "175532.308000",
        "175533.315000",
        "175534.319000",
        "175535.292000",
        "175536.295000",
        "175537.335000",
        "175538.309000",
        "175539.308000",
        "175540.317000",
        "175541.323000",
        "175542.322000",
        "175543.324000",
        "175544.312000",
        "175545.311000",
        "175546.315000",
        "175547.334000",
        "175548.295000",
        "175549.323000",
        "175550.317000",
        "175551.322000",
        "175552.307000",
        "175553.341000",
        "175554.348000",
        "175555.347000",
        "175556.326000",
        "175557.308000",
        "175558.308000",
        "175559.321000",
        "175600.310000",
        "175601.341000",
        "175602.328000",
        "175603.317000",
        "175604.304000",
        "175605.289000",
        "175606.329000",
        "175607.352000",
        "175608.313000",
        "175609.311000",
        "175610.332000",
        "175611.307000",
        "175612.314000",
        "175613.281000",
        "175614.329000",
        "175615.299000",
        "175616.313000",
        "175617.328000",
        "175618.322000",
        "175619.316000",
        "175620.322000",
        "175621.314000",
        "175622.313000",
        "175623.312000",
        "175624.313000",
        "175625.317000",
        "175626.326000",
        "175627.325000",
        "175628.330000",
        "175629.314000",
        "175630.295000",
        "175631.280000",
        "175632.306000",
        "175633.297000",
        "175634.282000",
        "175635.302000",
        "175636.321000",
        "175637.336000",
        "175638.333000",
        "175639.314000",
        "175640.324000",
        "175641.339000",
        "175642.328000",
        "175643.315000",
        "175644.323000",
        "175645.303000",
        "175646.320000",
        "175647.337000",
        "175648.325000",
        "175649.291000",
        "175650.340000",
        "175651.312000",
        "175652.361000",
        "175653.353000",
        "175654.312000",
        "175655.328000",
        "175656.365000"
      ],
      "InstanceCreationTime": [
        "175209.460000",
        "175210.300000",
        "175211.319000",
        "175212.320000",
        "175213.310000",
        "175214.316000",
        "175215.327000",
        "175216.296000",
        "175217.311000",
        "175218.367000",
        "175219.332000",
        "175220.353000",
        "175221.339000",
        "175222.310000",
        "175223.322000",
        "175224.337000",
        "175225.332000",
        "175226.331000",
        "175227.354000",
        "175228.370000",
        "175229.301000",
        "175230.321000",
        "175231.325000",
        "175232.316000",
        "175233.341000",
        "175234.303000",
        "175235.300000",
        "175236.302000",
        "175237.335000",
        "175238.302000",
        "175239.294000",
        "175240.330000",
        "175241.306000",
        "175242.297000",
        "175243.304000",
        "175244.283000",
        "175245.318000",
        "175246.308000",
        "175247.310000",
        "175248.311000",
        "175249.318000",
        "175250.312000",
        "175251.299000",
        "175252.295000",
        "175253.298000",
        "175254.309000",
        "175255.309000",
        "175256.316000",
        "175257.321000",
        "175258.302000",
        "175259.327000",
        "175300.334000",
        "175301.317000",
        "175302.303000",
        "175303.312000",
        "175304.302000",
        "175305.320000",
        "175306.309000",
        "175307.307000",
        "175308.307000",
        "175309.350000",
        "175310.340000",
        "175311.324000",
        "175312.335000",
        "175313.311000",
        "175314.329000",
        "175315.302000",
        "175316.350000",
        "175317.315000",
        "175318.310000",
        "175319.321000",
        "175320.305000",
        "175321.328000",
        "175322.319000",
        "175323.323000",
        "175324.316000",
        "175325.302000",
        "175326.324000",
        "175327.307000",
        "175328.302000",
        "175329.313000",
        "175330.297000",
        "175331.302000",
        "175332.321000",
        "175333.322000",
        "175334.311000",
        "175335.304000",
        "175336.288000",
        "175337.312000",
        "175338.319000",
        "175339.329000",
        "175340.303000",
        "175341.303000",
        "175342.305000",
        "175343.307000",
        "175344.310000",
        "175345.304000",
        "175346.313000",
        "175347.294000",
        "175348.310000",
        "175349.332000",
        "175350.322000",
        "175351.338000",
        "175352.306000",
        "175353.308000",
        "175354.310000",
        "175355.316000",
        "175356.338000",
        "175357.374000",
        "175358.324000",
        "175359.287000",
        "175400.331000",
        "175401.301000",
        "175402.304000",
        "175403.329000",
        "175404.346000",
        "175405.369000",
        "175406.328000",
        "175407.324000",
        "175408.329000",
        "175409.325000",
        "175410.335000",
        "175411.319000",
        "175412.306000",
        "175413.284000",
        "175414.313000",
        "175415.304000",
        "175416.330000",
        "175417.325000",
        "175418.332000",
        "175419.313000",
        "175420.333000",
        "175421.325000",
        "175422.306000",
        "175423.295000",
        "175424.343000",
        "175425.314000",
        "175426.299000",
        "175427.330000",
        "175428.318000",
        "175429.315000",
        "175430.327000",
        "175431.329000",
        "175432.317000",
        "175433.303000",
        "175434.321000",
        "175435.289000",
        "175436.322000",
        "175437.341000",
        "175438.362000",
        "175439.338000",
        "175440.307000",
        "175441.320000",
        "175442.339000",
        "175443.330000",
        "175444.324000",
        "175445.333000",
        "175446.306000",
        "175447.342000",
        "175448.307000",
        "175449.327000",
        "175450.303000",
        "175451.320000",
        "175452.347000",
        "175453.312000",
        "175454.314000",
        "175455.328000",
        "175456.295000",
        "175457.310000",
        "175458.320000",
        "175459.299000",
        "175500.314000",
        "175501.378000",
        "175502.309000",
        "175503.321000",
        "175504.319000",
        "175505.327000",
        "175506.329000",
        "175507.326000",
        "175508.304000",
        "175509.309000",
        "175510.304000",
        "175511.316000",
        "175512.311000",
        "175513.327000",
        "175514.318000",
        "175515.303000",
        "175516.353000",
        "175517.305000",
        "175518.322000",
        "175519.335000",
        "175520.299000",
        "175521.320000",
        "175522.313000",
        "175523.322000",
        "175524.308000",
        "175525.309000",
        "175526.323000",
        "175527.330000",
        "175528.320000",
        "175529.328000",
        "175530.320000",
        "175531.369000",
        "175532.308000",
        "175533.315000",
        "175534.319000",
        "175535.292000",
        "175536.295000",
        "175537.335000",
        "175538.309000",
        "175539.308000",
        "175540.317000",
        "175541.323000",
        "175542.322000",
        "175543.324000",
        "175544.312000",
        "175545.311000",
        "175546.315000",
        "175547.334000",
        "175548.295000",
        "175549.323000",
        "175550.317000",
        "175551.322000",
        "175552.307000",
        "175553.341000",
        "175554.348000",
        "175555.347000",
        "175556.326000",
        "175557.308000",
        "175558.308000",
        "175559.321000",
        "175600.310000",
        "175601.341000",
        "175602.328000",
        "175603.317000",
        "175604.304000",
        "175605.289000",
        "175606.329000",
        "175607.352000",
        "175608.313000",
        "175609.311000",
        "175610.332000",
        "175611.307000",
        "175612.314000",
        "175613.281000",
        "175614.329000",
        "175615.299000",
        "175616.313000",
        "175617.328000",
        "175618.322000",
        "175619.316000",
        "175620.322000",
        "175621.314000",
        "175622.313000",
        "175623.312000",
        "175624.313000",
        "175625.317000",
        "175626.326000",
        "175627.325000",
        "175628.330000",
        "175629.314000",
        "175630.295000",
        "175631.280000",
        "175632.306000",
        "175633.297000",
        "175634.282000",
        "175635.302000",
        "175636.321000",
        "175637.336000",
        "175638.333000",
        "175639.314000",
        "175640.324000",
        "175641.339000",
        "175642.328000",
        "175643.315000",
        "175644.323000",
        "175645.303000",
        "175646.320000",
        "175647.337000",
        "175648.325000",
        "175649.291000",
        "175650.340000",
        "175651.312000",
        "175652.361000",
        "175653.353000",
        "175654.312000",
        "175655.328000",
        "175656.365000"
      ],
      "InstanceNumber": [
        1,
        2,
        3,
        4,
        5,
        6,
        7,
        8,
        9,
        10,
        11,
        12,
        13,
        14,
        15,
        16,
        17,
        18,
        19,
        20,
        21,
        22,
        23,
        24,
        25,
        26,
        27,
        28,
        29,
        30,
        31,
        32,
        33,
        34,
        35,
        36,
        37,
        38,
        39,
        40,
        41,
        42,
        43,
        44,
        45,
        46,
        47,
        48,
        49,
        50,
        51,
        52,
        53,
        54,
        55,
        56,
        57,
        58,
        59,
        60,
        61,
        62,
        63,
        64,
        65,
        66,
        67,
        68,
        69,
        70,
        71,
        72,
        73,
        74,
        75,
        76,
        77,
        78,
        79,
        80,
        81,
        82,
        83,
        84,
        85,
        86,
        87,
        88,
        89,
        90,
        91,
        92,
        93,
        94,
        95,
        96,
        97,
        98,
        99,
        100,
        101,
        102,
        103,
        104,
        105,
        106,
        107,
        108,
        109,
        110,
        111,
        112,
        113,
        114,
        115,
        116,
        117,
        118,
        119,
        120,
        121,
        122,
        123,
        124,
        125,
        126,
        127,
        128,
        129,
        130,
        131,
        132,
        133,
        134,
        135,
        136,
        137,
        138,
        139,
        140,
        141,
        142,
        143,
        144,
        145,
        146,
        147,
        148,
        149,
        150,
        151,
        152,
        153,
        154,
        155,
        156,
