{
  "AcquisitionMatrixPE": 96,
  "AcquisitionNumber": 1,
  "BandwidthPerPixelPhaseEncode": 18.939,
  "BaseResolution": 96,
  "BodyPartExamined": "BRAIN",
  "ConsistencyInfo": "N4_VE11C_LATEST_20160120",
  "ConversionSoftware": "dcm2niix",
  "ConversionSoftwareVersion": "v1.0.20171215 (OpenJPEG build) GCC6.3.0",
  "DerivedVendorReportedEchoSpacing": 0.000550011,
  "DeviceSerialNumber": "66112",
  "DwellTime": 2.2e-06,
  "EchoTime": 0.033,
  "EchoTrainLength": 96,
  "EffectiveEchoSpacing": 0.000550011,
  "FlipAngle": 59,
  "ImageOrientationPatientDICOM": [
    0.998759,
    0.0444654,
    0.0224395,
    -0.0450041,
    0.998696,
    0.0240982
  ],
  "ImageType": [
    "ORIGINAL",
    "PRIMARY",
    "FMRI",
    "NONE",
    "ND",
    "NORM",
    "MOSAIC"
  ],
  "InPlanePhaseEncodingDirectionDICOM": "COL",
  "InstitutionAddress": "Maynard_3_Hanover_NH_US_03755",
  "InstitutionName": "Dartmouth_College_-_PBS",
  "InstitutionalDepartmentName": "Department",
  "MRAcquisitionType": "2D",
  "MagneticFieldStrength": 3,
  "Manufacturer": "Siemens",
  "ManufacturersModelName": "Prisma",
  "Modality": "MR",
  "MultibandAccelerationFactor": 4,
  "PartialFourier": 1,
  "PatientPosition": "HFS",
  "PercentPhaseFOV": 100,
  "PhaseEncodingDirection": "j-",
  "PhaseEncodingSteps": 96,
  "PhaseResolution": 1,
  "PixelBandwidth": 2365,
  "ProcedureStepDescription": "Gobbini_Matteo_1038_hyperface",
  "ProtocolName": "func_run-05_task-localizer",
  "PulseSequenceDetails": "%SiemensSeq%_ep2d_bold",
  "ReceiveCoilActiveElements": "HEA;HEP",
  "ReceiveCoilName": "Head_32",
  "ReconMatrixPE": 96,
  "RepetitionTime": 1,
  "SAR": 0.0452674,
  "ScanOptions": "FS",
  "ScanningSequence": "EP",
  "SequenceName": "_epfid2d1_96",
  "SequenceVariant": "SK",
  "SeriesDescription": "func_run-05_task-localizer",
  "SeriesNumber": 35,
  "ShimSetting": [
    4140,
    -7714,
    -7318,
    639,
    -33,
    29,
    3,
    59
  ],
  "SliceThickness": 2.5,
  "SliceTiming": [
    0.735,
    0,
    0.49,
    0.0825,
    0.5725,
    0.1625,
    0.6525,
    0.3275,
    0.8175,
    0.4075,
    0.8975,
    0.245,
    0.735,
    0,
    0.49,
    0.0825,
    0.5725,
    0.1625,
    0.6525,
    0.3275,
    0.8175,
    0.4075,
    0.8975,
    0.245,
    0.735,
    0,
    0.49,
    0.0825,
    0.5725,
    0.1625,
    0.6525,
    0.3275,
    0.8175,
    0.4075,
    0.8975,
    0.245,
    0.735,
    0,
    0.49,
    0.0825,
    0.5725,
    0.1625,
    0.6525,
    0.3275,
    0.8175,
    0.4075,
    0.8975,
    0.245
  ],
  "SoftwareVersions": "syngo_MR_E11",
  "SpacingBetweenSlices": 2.5,
  "StationName": "AWP66112",
  "TotalReadoutTime": 0.0522511,
  "TxRefAmp": 224.91,
  "time": {
    "samples": {
      "AcquisitionNumber": [
        1,
        2,
        3,
        4,
        5,
        6,
        7,
        8,
        9,
        10,
        11,
        12,
        13,
        14,
        15,
        16,
        17,
        18,
        19,
        20,
        21,
        22,
        23,
        24,
        25,
        26,
        27,
        28,
        29,
        30,
        31,
        32,
        33,
        34,
        35,
        36,
        37,
        38,
        39,
        40,
        41,
        42,
        43,
        44,
        45,
        46,
        47,
        48,
        49,
        50,
        51,
        52,
        53,
        54,
        55,
        56,
        57,
        58,
        59,
        60,
        61,
        62,
        63,
        64,
        65,
        66,
        67,
        68,
        69,
        70,
        71,
        72,
        73,
        74,
        75,
        76,
        77,
        78,
        79,
        80,
        81,
        82,
        83,
        84,
        85,
        86,
        87,
        88,
        89,
        90,
        91,
        92,
        93,
        94,
        95,
        96,
        97,
        98,
        99,
        100,
        101,
        102,
        103,
        104,
        105,
        106,
        107,
        108,
        109,
        110,
        111,
        112,
        113,
        114,
        115,
        116,
        117,
        118,
        119,
        120,
        121,
        122,
        123,
        124,
        125,
        126,
        127,
        128,
        129,
        130,
        131,
        132,
        133,
        134,
        135,
        136,
        137,
        138,
        139,
        140,
        141,
        142,
        143,
        144,
        145,
        146,
        147,
        148,
        149,
        150,
        151,
        152,
        153,
        154,
        155,
        156,
        157,
        158,
        159,
        160,
        161,
        162,
        163,
        164,
        165,
        166,
        167,
        168,
        169,
        170,
        171,
        172,
        173,
        174,
        175,
        176,
        177,
        178,
        179,
        180,
        181,
        182,
        183,
        184,
        185,
        186,
        187,
        188,
        189,
        190,
        191,
        192,
        193,
        194,
        195,
        196,
        197,
        198,
        199,
        200,
        201,
        202,
        203,
        204,
        205,
        206,
        207,
        208,
        209,
        210,
        211,
        212,
        213,
        214,
        215,
        216,
        217,
        218,
        219,
        220,
        221,
        222,
        223,
        224,
        225,
        226,
        227,
        228,
        229,
        230,
        231,
        232,
        233,
        234,
        235,
        236
      ],
      "AcquisitionTime": [
        "174210.162500",
        "174211.162500",
        "174212.162500",
        "174213.162500",
        "174214.162500",
        "174215.162500",
        "174216.162500",
        "174217.162500",
        "174218.162500",
        "174219.162500",
        "174220.162500",
        "174221.162500",
        "174222.162500",
        "174223.162500",
        "174224.162500",
        "174225.162500",
        "174226.162500",
        "174227.162500",
        "174228.162500",
        "174229.162500",
        "174230.162500",
        "174231.162500",
        "174232.162500",
        "174233.162500",
        "174234.162500",
        "174235.162500",
        "174236.162500",
        "174237.162500",
        "174238.162500",
        "174239.162500",
        "174240.162500",
        "174241.162500",
        "174242.162500",
        "174243.162500",
        "174244.162500",
        "174245.162500",
        "174246.162500",
        "174247.162500",
        "174248.162500",
        "174249.162500",
        "174250.162500",
        "174251.162500",
        "174252.162500",
        "174253.162500",
        "174254.162500",
        "174255.162500",
        "174256.162500",
        "174257.162500",
        "174258.162500",
        "174259.162500",
        "174300.162500",
        "174301.162500",
        "174302.162500",
        "174303.162500",
        "174304.162500",
        "174305.162500",
        "174306.162500",
        "174307.162500",
        "174308.162500",
        "174309.162500",
        "174310.162500",
        "174311.162500",
        "174312.162500",
        "174313.162500",
        "174314.162500",
        "174315.162500",
        "174316.162500",
        "174317.162500",
        "174318.162500",
        "174319.162500",
        "174320.162500",
        "174321.162500",
        "174322.162500",
        "174323.162500",
        "174324.162500",
        "174325.162500",
        "174326.162500",
        "174327.162500",
        "174328.162500",
        "174329.162500",
        "174330.162500",
        "174331.162500",
        "174332.162500",
        "174333.162500",
        "174334.162500",
        "174335.162500",
        "174336.162500",
        "174337.162500",
        "174338.162500",
        "174339.162500",
        "174340.162500",
        "174341.162500",
        "174342.162500",
        "174343.162500",
        "174344.162500",
        "174345.162500",
        "174346.162500",
        "174347.162500",
        "174348.162500",
        "174349.162500",
        "174350.162500",
        "174351.162500",
        "174352.162500",
        "174353.162500",
        "174354.162500",
        "174355.162500",
        "174356.162500",
        "174357.162500",
        "174358.162500",
        "174359.162500",
        "174400.162500",
        "174401.162500",
        "174402.162500",
        "174403.162500",
        "174404.162500",
        "174405.162500",
        "174406.162500",
        "174407.162500",
        "174408.162500",
        "174409.162500",
        "174410.162500",
        "174411.162500",
        "174412.162500",
        "174413.162500",
        "174414.162500",
        "174415.162500",
        "174416.162500",
        "174417.162500",
        "174418.162500",
        "174419.162500",
        "174420.162500",
        "174421.162500",
        "174422.162500",
        "174423.162500",
        "174424.162500",
        "174425.162500",
        "174426.162500",
        "174427.162500",
        "174428.162500",
        "174429.162500",
        "174430.162500",
        "174431.162500",
        "174432.162500",
        "174433.162500",
        "174434.162500",
        "174435.162500",
        "174436.162500",
        "174437.162500",
        "174438.162500",
        "174439.162500",
        "174440.162500",
        "174441.162500",
        "174442.162500",
        "174443.162500",
        "174444.162500",
        "174445.162500",
        "174446.162500",
        "174447.162500",
        "174448.162500",
        "174449.162500",
        "174450.162500",
        "174451.162500",
        "174452.162500",
        "174453.162500",
        "174454.162500",
        "174455.162500",
        "174456.162500",
        "174457.162500",
        "174458.162500",
        "174459.162500",
        "174500.162500",
        "174501.162500",
        "174502.162500",
        "174503.162500",
        "174504.162500",
        "174505.162500",
        "174506.162500",
        "174507.162500",
        "174508.162500",
        "174509.162500",
        "174510.162500",
        "174511.162500",
        "174512.162500",
        "174513.162500",
        "174514.162500",
        "174515.162500",
        "174516.162500",
        "174517.162500",
        "174518.162500",
        "174519.162500",
        "174520.162500",
        "174521.162500",
        "174522.162500",
        "174523.162500",
        "174524.162500",
        "174525.162500",
        "174526.162500",
        "174527.162500",
        "174528.162500",
        "174529.162500",
        "174530.162500",
        "174531.162500",
        "174532.162500",
        "174533.162500",
        "174534.162500",
        "174535.162500",
        "174536.162500",
        "174537.162500",
        "174538.162500",
        "174539.162500",
        "174540.162500",
        "174541.162500",
        "174542.162500",
        "174543.162500",
        "174544.162500",
        "174545.162500",
        "174546.162500",
        "174547.162500",
        "174548.162500",
        "174549.162500",
        "174550.162500",
        "174551.162500",
        "174552.162500",
        "174553.162500",
        "174554.162500",
        "174555.162500",
        "174556.162500",
        "174557.162500",
        "174558.162500",
        "174559.162500",
        "174600.162500",
        "174601.162500",
        "174602.162500",
        "174603.162500",
        "174604.162500",
        "174605.162500"
      ],
      "ContentTime": [
        "174211.873000",
        "174212.719000",
        "174213.706000",
        "174214.722000",
        "174215.711000",
        "174216.710000",
        "174217.709000",
        "174218.711000",
        "174219.721000",
        "174220.704000",
        "174221.700000",
        "174222.703000",
        "174223.696000",
        "174224.710000",
        "174225.685000",
        "174226.716000",
        "174227.729000",
        "174228.703000",
        "174229.724000",
        "174230.719000",
        "174231.722000",
        "174232.718000",
        "174233.716000",
        "174234.706000",
        "174235.697000",
        "174236.697000",
        "174237.700000",
        "174238.747000",
        "174239.697000",
        "174240.721000",
        "174241.709000",
        "174242.712000",
        "174243.700000",
        "174244.708000",
        "174245.713000",
        "174246.709000",
        "174247.708000",
        "174248.697000",
        "174249.713000",
        "174250.711000",
        "174251.713000",
        "174252.696000",
        "174253.703000",
        "174254.702000",
        "174255.704000",
        "174256.711000",
        "174257.707000",
        "174258.716000",
        "174259.700000",
        "174300.704000",
        "174301.707000",
        "174302.715000",
        "174303.714000",
        "174304.714000",
        "174305.700000",
        "174306.717000",
        "174307.749000",
        "174308.715000",
        "174309.707000",
        "174310.717000",
        "174311.734000",
        "174312.699000",
        "174313.710000",
        "174314.750000",
        "174315.744000",
        "174316.759000",
        "174317.708000",
        "174318.702000",
        "174319.715000",
        "174320.709000",
        "174321.721000",
        "174322.706000",
        "174323.703000",
        "174324.695000",
        "174325.722000",
        "174326.734000",
        "174327.712000",
        "174328.700000",
        "174329.719000",
        "174330.770000",
        "174331.716000",
        "174332.706000",
        "174333.689000",
        "174334.699000",
        "174335.700000",
        "174336.724000",
        "174337.709000",
        "174338.748000",
        "174339.734000",
        "174340.716000",
        "174341.718000",
        "174342.717000",
        "174343.709000",
        "174344.739000",
        "174345.716000",
        "174346.700000",
        "174347.726000",
        "174348.714000",
        "174349.737000",
        "174350.708000",
        "174351.731000",
        "174352.748000",
        "174353.719000",
        "174354.718000",
        "174355.717000",
        "174356.724000",
        "174357.742000",
        "174358.724000",
        "174359.727000",
        "174400.735000",
        "174401.726000",
        "174402.745000",
        "174403.699000",
        "174404.716000",
        "174405.719000",
        "174406.752000",
        "174407.698000",
        "174408.735000",
        "174409.746000",
        "174410.696000",
        "174411.714000",
        "174412.694000",
        "174413.724000",
        "174414.735000",
        "174415.725000",
        "174416.731000",
        "174417.769000",
        "174418.722000",
        "174419.738000",
        "174420.732000",
        "174421.733000",
        "174422.723000",
        "174423.710000",
        "174424.735000",
        "174425.734000",
        "174426.726000",
        "174427.704000",
        "174428.754000",
        "174429.719000",
        "174430.713000",
        "174431.691000",
        "174432.698000",
        "174433.740000",
        "174434.725000",
        "174435.695000",
        "174436.707000",
        "174437.696000",
        "174438.718000",
        "174439.712000",
        "174440.721000",
        "174441.713000",
        "174442.710000",
        "174443.721000",
        "174444.696000",
        "174445.725000",
        "174446.734000",
        "174447.730000",
        "174448.724000",
        "174449.687000",
        "174450.757000",
        "174451.722000",
        "174452.731000",
        "174453.711000",
        "174454.751000",
        "174455.735000",
        "174456.747000",
        "174457.730000",
        "174458.797000",
        "174459.712000",
        "174500.720000",
        "174501.738000",
        "174502.706000",
        "174503.691000",
        "174504.718000",
        "174505.730000",
        "174506.714000",
        "174507.717000",
        "174508.712000",
        "174509.730000",
        "174510.721000",
        "174511.724000",
        "174512.726000",
        "174513.723000",
        "174514.709000",
        "174515.735000",
        "174516.888000",
        "174517.722000",
        "174518.712000",
        "174519.705000",
        "174520.717000",
        "174521.709000",
        "174522.714000",
        "174523.717000",
        "174524.872000",
        "174525.721000",
        "174526.781000",
        "174528.094000",
        "174528.729000",
        "174530.016000",
        "174530.918000",
        "174531.772000",
        "174532.820000",
        "174533.852000",
        "174534.846000",
        "174535.712000",
        "174536.736000",
        "174537.743000",
        "174538.745000",
        "174539.873000",
        "174540.883000",
        "174541.744000",
        "174542.725000",
        "174543.700000",
        "174544.713000",
        "174545.712000",
        "174546.716000",
        "174547.712000",
        "174548.720000",
        "174549.721000",
        "174550.704000",
        "174551.992000",
        "174552.697000",
        "174553.725000",
        "174554.711000",
        "174555.721000",
        "174556.715000",
        "174557.713000",
        "174558.703000",
        "174559.692000",
        "174600.722000",
        "174601.696000",
        "174602.715000",
        "174603.711000",
        "174604.721000",
        "174605.727000",
        "174606.753000"
      ],
      "InstanceCreationTime": [
        "174211.873000",
        "174212.719000",
        "174213.706000",
        "174214.722000",
        "174215.711000",
        "174216.710000",
        "174217.709000",
        "174218.711000",
        "174219.721000",
        "174220.704000",
        "174221.700000",
        "174222.703000",
        "174223.696000",
        "174224.710000",
        "174225.685000",
        "174226.716000",
        "174227.729000",
        "174228.703000",
        "174229.724000",
        "174230.719000",
        "174231.722000",
        "174232.718000",
        "174233.716000",
        "174234.706000",
        "174235.697000",
        "174236.697000",
        "174237.700000",
        "174238.747000",
        "174239.697000",
        "174240.721000",
        "174241.709000",
        "174242.712000",
        "174243.700000",
        "174244.708000",
        "174245.713000",
        "174246.709000",
        "174247.708000",
        "174248.697000",
        "174249.713000",
        "174250.711000",
        "174251.713000",
        "174252.696000",
        "174253.703000",
        "174254.702000",
        "174255.704000",
        "174256.711000",
        "174257.707000",
        "174258.716000",
        "174259.700000",
        "174300.704000",
        "174301.707000",
        "174302.715000",
        "174303.714000",
        "174304.714000",
        "174305.700000",
        "174306.717000",
        "174307.749000",
        "174308.715000",
        "174309.707000",
        "174310.717000",
        "174311.734000",
        "174312.699000",
        "174313.710000",
        "174314.750000",
        "174315.744000",
        "174316.759000",
        "174317.708000",
        "174318.702000",
        "174319.715000",
        "174320.709000",
        "174321.721000",
        "174322.706000",
        "174323.703000",
        "174324.695000",
        "174325.722000",
        "174326.734000",
        "174327.712000",
        "174328.700000",
        "174329.719000",
        "174330.770000",
        "174331.716000",
        "174332.706000",
        "174333.689000",
        "174334.699000",
        "174335.700000",
        "174336.724000",
        "174337.709000",
        "174338.748000",
        "174339.734000",
        "174340.716000",
        "174341.718000",
        "174342.717000",
        "174343.709000",
        "174344.739000",
        "174345.716000",
        "174346.700000",
        "174347.726000",
        "174348.714000",
        "174349.737000",
        "174350.708000",
        "174351.731000",
        "174352.748000",
        "174353.719000",
        "174354.718000",
        "174355.717000",
        "174356.724000",
        "174357.742000",
        "174358.724000",
        "174359.727000",
        "174400.735000",
        "174401.726000",
        "174402.745000",
        "174403.699000",
        "174404.716000",
        "174405.719000",
        "174406.752000",
        "174407.698000",
        "174408.735000",
        "174409.746000",
        "174410.696000",
        "174411.714000",
        "174412.694000",
        "174413.724000",
        "174414.735000",
        "174415.725000",
        "174416.731000",
        "174417.769000",
        "174418.722000",
        "174419.738000",
        "174420.732000",
        "174421.733000",
        "174422.723000",
        "174423.710000",
        "174424.735000",
        "174425.734000",
        "174426.726000",
        "174427.704000",
        "174428.754000",
        "174429.719000",
        "174430.713000",
        "174431.691000",
        "174432.698000",
        "174433.740000",
        "174434.725000",
        "174435.695000",
        "174436.707000",
        "174437.696000",
        "174438.718000",
        "174439.712000",
        "174440.721000",
        "174441.713000",
        "174442.710000",
        "174443.721000",
        "174444.696000",
        "174445.725000",
        "174446.734000",
        "174447.730000",
        "174448.724000",
        "174449.687000",
        "174450.757000",
        "174451.722000",
        "174452.731000",
        "174453.711000",
        "174454.751000",
        "174455.735000",
        "174456.747000",
        "174457.730000",
        "174458.797000",
        "174459.712000",
        "174500.720000",
        "174501.738000",
        "174502.706000",
        "174503.691000",
        "174504.718000",
        "174505.730000",
        "174506.714000",
        "174507.717000",
        "174508.712000",
        "174509.730000",
        "174510.721000",
        "174511.724000",
        "174512.726000",
        "174513.723000",
        "174514.709000",
        "174515.735000",
        "174516.888000",
        "174517.722000",
        "174518.712000",
        "174519.705000",
        "174520.717000",
        "174521.709000",
        "174522.714000",
        "174523.717000",
        "174524.872000",
        "174525.721000",
        "174526.781000",
        "174528.094000",
        "174528.729000",
        "174530.016000",
        "174530.918000",
        "174531.772000",
        "174532.820000",
        "174533.852000",
        "174534.846000",
        "174535.712000",
        "174536.736000",
        "174537.743000",
        "174538.745000",
        "174539.873000",
        "174540.883000",
        "174541.744000",
        "174542.725000",
        "174543.700000",
        "174544.713000",
        "174545.712000",
        "174546.716000",
        "174547.712000",
        "174548.720000",
        "174549.721000",
        "174550.704000",
        "174551.992000",
        "174552.697000",
        "174553.725000",
        "174554.711000",
        "174555.721000",
        "174556.715000",
        "174557.713000",
        "174558.703000",
        "174559.692000",
        "174600.722000",
        "174601.696000",
        "174602.715000",
        "174603.711000",
        "174604.721000",
        "174605.727000",
        "174606.753000"
      ],
      "InstanceNumber": [
        1,
        2,
        3,
        4,
        5,
        6,
        7,
        8,
        9,
        10,
        11,
        12,
        13,
        14,
        15,
        16,
        17,
        18,
        19,
        20,
        21,
        22,
        23,
        24,
        25,
        26,
        27,
        28,
        29,
        30,
        31,
        32,
        33,
        34,
        35,
        36,
        37,
        38,
        39,
        40,
        41,
        42,
        43,
        44,
        45,
        46,
        47,
        48,
        49,
        50,
        51,
        52,
        53,
        54,
        55,
        56,
        57,
        58,
        59,
        60,
        61,
        62,
        63,
        64,
        65,
        66,
        67,
        68,
        69,
        70,
        71,
        72,
        73,
        74,
        75,
        76,
        77,
        78,
        79,
        80,
        81,
        82,
        83,
        84,
        85,
        86,
        87,
        88,
        89,
        90,
        91,
        92,
        93,
        94,
        95,
        96,
        97,
        98,
        99,
        100,
        101,
        102,
        103,
        104,
        105,
        106,
        107,
        108,
        109,
        110,
        111,
        112,
        113,
        114,
        115,
        116,
        117,
        118,
        119,
        120,
        121,
        122,
        123,
        124,
        125,
        126,
        127,
        128,
        129,
        130,
        131,
        132,
        133,
        134,
        135,
        136,
        137,
        138,
        139,
        140,
        141,
        142,
        143,
        144,
        145,
        146,
        147,
        148,
        149,
        150,
        151,
        152,
        153,
        154,
        155,
        156,
        157,
        158,
        159,
        160,
        161,
        162,
        163,
        164,
        165,
        166,
        167,
        168,
        169,
        170,
        171,
        172,
        173,
        174,
        175,
        176,
        177,
        178,
        179,
        180,
        181,
        182,
        183,
        184,
        185,
        186,
        187,
        188,
        189,
        190,
        191,
        192,
        193,
        194,
        195,
        196,
        197,
        198,
        199,
        200,
        201,
        202,
        203,
        204,
        205,
        206,
        207,
        208,
        209,
        210,
        211,
        212,
        213,
        214,
        215,
        216,
        217,
        218,
        219,
        220,
        221,
        222,
        223,
        224,
        225,
        226,
        227,
        228,
        229,
        230,
        231,
        232,
        233,
        234,
        235,
        236
      ],
      "LargestImagePixelValue": [
        720,
        682,
        699,
        712,
        706,
        687,
        673,
        814,
        930,
        823,
        741,
        664,
        668,
        676,
        680,
        674,
        675,
        671,
        685,
        661,
        675,
        682,
        675,
        671,
        659,
        667,
        676,
        653,
        666,
        807,
        676,
        730,
        821,
        719,
        659,
        672,
        656,
        672,
        650,
        661,
        701,
        679,
        655,
        680,
        697,
        680,
        655,
        683,
        655,
        662,
        686,
        656,
        659,
        674,
        674,
        666,
        665,
        702,
        792,
        655,
        692,
        845,
        656,
        680,
        762,
        661,
        661,
        673,
        664,
        658,
        676,
        656,
        658,
        659,
        656,
        662,
        658,
        684,
        659,
        721,
        673,
        658,
        706,
        758,
        700,
        673,
        655,
        664,
        700,
        687,
        668,
        674,
        713,
        659,
        658,
        677,
        660,
        653,
        666,
        660,
        661,
        653,
        656,
        666,
        650,
        682,
        657,
        655,
        667,
        655,
        678,
        695,
        657,
        670,
        781,
        658,
        658,
        687,
        653,
        671,
        759,
        691,
        668,
        677,
        704,
        653,
        676,
        693,
        705,
        659,
        667,
        751,
        654,
        667,
        774,
        655,
        677,
        735,
        656,
        656,
        675,
        656,
        659,
        688,
        686,
        657,
        709,
        702,
        657,
        678,
        691,
        653,
        689,
        653,
        662,
        721,
        785,
        669,
        750,
        852,
        684,
        684,
        770,
        658,
        663,
        793,
        661,
        661,
        770,
        658,
        664,
        708,
        669,
        656,
        701,
        657,
        657,
        725,
        659,
        674,
        798,
        670,
        694,
        834,
        658,
        663,
        713,
        661,
        657,
        683,
        656,
        656,
        715,
        655,
        667,
        712,
        658,
        658,
        690,
        661,
        666,
        701,
        653,
        672,
        681,
        662,
        654,
        689,
        661,
        680,
        657,
        672,
        689,
        660,
        690,
        684,
        657,
        682,
        689,
        653,
        689,
        708,
        820,
        686,
        695,
        697,
        800,
        676,
        672,
        692,
        665,
        650,
        657,
        683,
        663,
        659
      ],
      "WindowCenter": [
        343,
        342,
        342,
        343,
        342,
        342,
        342,
        343,
        343,
        342,
        341,
        339,
        340,
        341,
        341,
        341,
        342,
        342,
        342,
        342,
        343,
        343,
        343,
        344,
        344,
        344,
        344,
        344,
        344,
