{
  "AcquisitionMatrixPE": 96,
  "AcquisitionNumber": 1,
  "BandwidthPerPixelPhaseEncode": 18.939,
  "BaseResolution": 96,
  "BodyPartExamined": "BRAIN",
  "ConsistencyInfo": "N4_VE11C_LATEST_20160120",
  "ConversionSoftware": "dcm2niix",
  "ConversionSoftwareVersion": "v1.0.20171215 (OpenJPEG build) GCC6.3.0",
  "DerivedVendorReportedEchoSpacing": 0.000550011,
  "DeviceSerialNumber": "66112",
  "DwellTime": 2.2e-06,
  "EchoTime": 0.033,
  "EchoTrainLength": 96,
  "EffectiveEchoSpacing": 0.000550011,
  "FlipAngle": 59,
  "ImageOrientationPatientDICOM": [
    0.998759,
    0.0444654,
    0.0224395,
    -0.0450041,
    0.998696,
    0.0240982
  ],
  "ImageType": [
    "ORIGINAL",
    "PRIMARY",
    "FMRI",
    "NONE",
    "ND",
    "NORM",
    "MOSAIC"
  ],
  "InPlanePhaseEncodingDirectionDICOM": "COL",
  "InstitutionAddress": "Maynard_3_Hanover_NH_US_03755",
  "InstitutionName": "Dartmouth_College_-_PBS",
  "InstitutionalDepartmentName": "Department",
  "MRAcquisitionType": "2D",
  "MagneticFieldStrength": 3,
  "Manufacturer": "Siemens",
  "ManufacturersModelName": "Prisma",
  "Modality": "MR",
  "MultibandAccelerationFactor": 4,
  "PartialFourier": 1,
  "PatientPosition": "HFS",
  "PercentPhaseFOV": 100,
  "PhaseEncodingDirection": "j-",
  "PhaseEncodingSteps": 96,
  "PhaseResolution": 1,
  "PixelBandwidth": 2365,
  "ProcedureStepDescription": "Gobbini_Matteo_1038_hyperface",
  "ProtocolName": "func_run-08_task-visualmemory",
  "PulseSequenceDetails": "%SiemensSeq%_ep2d_bold",
  "ReceiveCoilActiveElements": "HEA;HEP",
  "ReceiveCoilName": "Head_32",
  "ReconMatrixPE": 96,
  "RepetitionTime": 1,
  "SAR": 0.0453759,
  "ScanOptions": "FS",
  "ScanningSequence": "EP",
  "SequenceName": "_epfid2d1_96",
  "SequenceVariant": "SK",
  "SeriesDescription": "func_run-08_task-visualmemory",
  "SeriesNumber": 56,
  "ShimSetting": [
    4140,
    -7714,
    -7318,
    639,
    -33,
    29,
    3,
    59
  ],
  "SliceThickness": 2.5,
  "SliceTiming": [
    0.735,
    0,
    0.49,
    0.0825,
    0.57,
    0.1625,
    0.6525,
    0.3275,
    0.815,
    0.4075,
    0.8975,
    0.245,
    0.735,
    0,
    0.49,
    0.0825,
    0.57,
    0.1625,
    0.6525,
    0.3275,
    0.815,
    0.4075,
    0.8975,
    0.245,
    0.735,
    0,
    0.49,
    0.0825,
    0.57,
    0.1625,
    0.6525,
    0.3275,
    0.815,
    0.4075,
    0.8975,
    0.245,
    0.735,
    0,
    0.49,
    0.0825,
    0.57,
    0.1625,
    0.6525,
    0.3275,
    0.815,
    0.4075,
    0.8975,
    0.245
  ],
  "SoftwareVersions": "syngo_MR_E11",
  "SpacingBetweenSlices": 2.5,
  "StationName": "AWP66112",
  "TotalReadoutTime": 0.0522511,
  "TxRefAmp": 224.91,
  "time": {
    "samples": {
      "AcquisitionNumber": [
        1,
        2,
        3,
        4,
        5,
        6,
        7,
        8,
        9,
        10,
        11,
        12,
        13,
        14,
        15,
        16,
        17,
        18,
        19,
        20,
        21,
        22,
        23,
        24,
        25,
        26,
        27,
        28,
        29,
        30,
        31,
        32,
        33,
        34,
        35,
        36,
        37,
        38,
        39,
        40,
        41,
        42,
        43,
        44,
        45,
        46,
        47,
        48,
        49,
        50,
        51,
        52,
        53,
        54,
        55,
        56,
        57,
        58,
        59,
        60,
        61,
        62,
        63,
        64,
        65,
        66,
        67,
        68,
        69,
        70,
        71,
        72,
        73,
        74,
        75,
        76,
        77,
        78,
        79,
        80,
        81,
        82,
        83,
        84,
        85,
        86,
        87,
        88,
        89,
        90,
        91,
        92,
        93,
        94,
        95,
        96,
        97,
        98,
        99,
        100,
        101,
        102,
        103,
        104,
        105,
        106,
        107,
        108,
        109,
        110,
        111,
        112,
        113,
        114,
        115,
        116,
        117,
        118,
        119,
        120,
        121,
        122,
        123,
        124,
        125,
        126,
        127,
        128,
        129,
        130,
        131,
        132,
        133,
        134,
        135,
        136,
        137,
        138,
        139,
        140,
        141,
        142,
        143,
        144,
        145,
        146,
        147,
        148,
        149,
        150,
        151,
        152,
        153,
        154,
        155,
        156,
        157,
        158,
        159,
        160,
        161,
        162,
        163,
        164,
        165,
        166,
        167,
        168,
        169,
        170,
        171,
        172,
        173,
        174,
        175,
        176,
        177,
        178,
        179,
        180,
        181,
        182,
        183,
        184,
        185,
        186,
        187,
        188,
        189,
        190,
        191,
        192,
        193,
        194,
        195,
        196,
        197,
        198,
        199,
        200,
        201,
        202,
        203,
        204,
        205,
        206,
        207,
        208,
        209,
        210,
        211,
        212,
        213,
        214,
        215,
        216,
        217,
        218,
        219,
        220,
        221,
        222,
        223,
        224,
        225,
        226,
        227,
        228,
        229,
        230,
        231,
        232,
        233,
        234,
        235,
        236,
        237,
        238,
        239,
        240,
        241,
        242,
        243,
        244,
        245,
        246,
        247,
        248,
        249,
        250,
        251,
        252,
        253,
        254,
        255,
        256,
        257,
        258,
        259,
        260,
        261,
        262,
        263,
        264,
        265,
        266,
        267,
        268,
        269,
        270,
        271,
        272,
        273,
        274,
        275,
        276,
        277,
        278,
        279,
        280,
        281,
        282,
        283,
        284,
        285,
        286,
        287,
        288
      ],
      "AcquisitionTime": [
        "175732.227500",
        "175733.227500",
        "175734.227500",
        "175735.227500",
        "175736.227500",
        "175737.227500",
        "175738.227500",
        "175739.227500",
        "175740.227500",
        "175741.227500",
        "175742.227500",
        "175743.227500",
        "175744.227500",
        "175745.227500",
        "175746.227500",
        "175747.227500",
        "175748.227500",
        "175749.227500",
        "175750.227500",
        "175751.227500",
        "175752.227500",
        "175753.227500",
        "175754.227500",
        "175755.227500",
        "175756.227500",
        "175757.227500",
        "175758.227500",
        "175759.227500",
        "175800.227500",
        "175801.227500",
        "175802.227500",
        "175803.227500",
        "175804.227500",
        "175805.227500",
        "175806.227500",
        "175807.227500",
        "175808.227500",
        "175809.227500",
        "175810.227500",
        "175811.227500",
        "175812.227500",
        "175813.227500",
        "175814.227500",
        "175815.227500",
        "175816.227500",
        "175817.227500",
        "175818.227500",
        "175819.227500",
        "175820.227500",
        "175821.227500",
        "175822.227500",
        "175823.227500",
        "175824.227500",
        "175825.227500",
        "175826.227500",
        "175827.227500",
        "175828.227500",
        "175829.227500",
        "175830.227500",
        "175831.227500",
        "175832.227500",
        "175833.227500",
        "175834.227500",
        "175835.227500",
        "175836.227500",
        "175837.227500",
        "175838.227500",
        "175839.227500",
        "175840.227500",
        "175841.227500",
        "175842.227500",
        "175843.227500",
        "175844.227500",
        "175845.227500",
        "175846.227500",
        "175847.227500",
        "175848.227500",
        "175849.227500",
        "175850.227500",
        "175851.227500",
        "175852.227500",
        "175853.227500",
        "175854.227500",
        "175855.227500",
        "175856.227500",
        "175857.227500",
        "175858.227500",
        "175859.227500",
        "175900.227500",
        "175901.227500",
        "175902.227500",
        "175903.227500",
        "175904.227500",
        "175905.227500",
        "175906.227500",
        "175907.227500",
        "175908.227500",
        "175909.227500",
        "175910.227500",
        "175911.227500",
        "175912.227500",
        "175913.227500",
        "175914.227500",
        "175915.227500",
        "175916.227500",
        "175917.227500",
        "175918.227500",
        "175919.227500",
        "175920.227500",
        "175921.227500",
        "175922.227500",
        "175923.227500",
        "175924.227500",
        "175925.227500",
        "175926.227500",
        "175927.227500",
        "175928.227500",
        "175929.227500",
        "175930.227500",
        "175931.227500",
        "175932.227500",
        "175933.227500",
        "175934.227500",
        "175935.227500",
        "175936.227500",
        "175937.227500",
        "175938.227500",
        "175939.227500",
        "175940.227500",
        "175941.227500",
        "175942.227500",
        "175943.227500",
        "175944.227500",
        "175945.227500",
        "175946.227500",
        "175947.227500",
        "175948.227500",
        "175949.227500",
        "175950.227500",
        "175951.227500",
        "175952.227500",
        "175953.227500",
        "175954.227500",
        "175955.227500",
        "175956.227500",
        "175957.227500",
        "175958.227500",
        "175959.227500",
        "180000.227500",
        "180001.227500",
        "180002.227500",
        "180003.227500",
        "180004.227500",
        "180005.227500",
        "180006.227500",
        "180007.227500",
        "180008.227500",
        "180009.227500",
        "180010.227500",
        "180011.227500",
        "180012.227500",
        "180013.227500",
        "180014.227500",
        "180015.227500",
        "180016.227500",
        "180017.227500",
        "180018.227500",
        "180019.227500",
        "180020.227500",
        "180021.227500",
        "180022.227500",
        "180023.227500",
        "180024.227500",
        "180025.227500",
        "180026.227500",
        "180027.227500",
        "180028.227500",
        "180029.227500",
        "180030.227500",
        "180031.227500",
        "180032.227500",
        "180033.227500",
        "180034.227500",
        "180035.227500",
        "180036.227500",
        "180037.227500",
        "180038.227500",
        "180039.227500",
        "180040.227500",
        "180041.227500",
        "180042.227500",
        "180043.227500",
        "180044.227500",
        "180045.227500",
        "180046.227500",
        "180047.227500",
        "180048.227500",
        "180049.227500",
        "180050.227500",
        "180051.227500",
        "180052.227500",
        "180053.227500",
        "180054.227500",
        "180055.227500",
        "180056.227500",
        "180057.227500",
        "180058.227500",
        "180059.227500",
        "180100.227500",
        "180101.227500",
        "180102.227500",
        "180103.227500",
        "180104.227500",
        "180105.227500",
        "180106.227500",
        "180107.227500",
        "180108.227500",
        "180109.227500",
        "180110.227500",
        "180111.227500",
        "180112.227500",
        "180113.227500",
        "180114.227500",
        "180115.227500",
        "180116.227500",
        "180117.227500",
        "180118.227500",
        "180119.227500",
        "180120.227500",
        "180121.227500",
        "180122.227500",
        "180123.227500",
        "180124.227500",
        "180125.227500",
        "180126.227500",
        "180127.227500",
        "180128.227500",
        "180129.227500",
        "180130.227500",
        "180131.227500",
        "180132.227500",
        "180133.227500",
        "180134.227500",
        "180135.227500",
        "180136.227500",
        "180137.227500",
        "180138.227500",
        "180139.227500",
        "180140.227500",
        "180141.227500",
        "180142.227500",
        "180143.227500",
        "180144.227500",
        "180145.227500",
        "180146.227500",
        "180147.227500",
        "180148.227500",
        "180149.227500",
        "180150.227500",
        "180151.227500",
        "180152.227500",
        "180153.227500",
        "180154.227500",
        "180155.227500",
        "180156.227500",
        "180157.227500",
        "180158.227500",
        "180159.227500",
        "180200.227500",
        "180201.227500",
        "180202.227500",
        "180203.227500",
        "180204.227500",
        "180205.227500",
        "180206.227500",
        "180207.227500",
        "180208.227500",
        "180209.227500",
        "180210.227500",
        "180211.227500",
        "180212.227500",
        "180213.227500",
        "180214.227500",
        "180215.227500",
        "180216.227500",
        "180217.227500",
        "180218.227500",
        "180219.227500"
      ],
      "ContentTime": [
        "175733.055000",
        "175733.885000",
        "175734.898000",
        "175735.871000",
        "175736.871000",
        "175737.878000",
        "175738.875000",
        "175739.883000",
        "175740.895000",
        "175741.910000",
        "175742.853000",
        "175743.870000",
        "175744.861000",
        "175745.852000",
        "175746.872000",
        "175747.871000",
        "175748.878000",
        "175749.879000",
        "175750.910000",
        "175751.835000",
        "175752.888000",
        "175753.868000",
        "175754.883000",
        "175755.878000",
        "175756.859000",
        "175757.884000",
        "175758.855000",
        "175759.880000",
        "175800.870000",
        "175801.866000",
        "175802.881000",
        "175803.873000",
        "175804.904000",
        "175805.896000",
        "175806.915000",
        "175807.911000",
        "175808.904000",
        "175809.890000",
        "175810.910000",
        "175811.883000",
        "175812.874000",
        "175813.912000",
        "175814.906000",
        "175815.856000",
        "175816.901000",
        "175817.878000",
        "175818.851000",
        "175819.876000",
        "175820.862000",
        "175821.860000",
        "175822.847000",
        "175823.911000",
        "175824.853000",
        "175825.871000",
        "175826.877000",
        "175827.914000",
        "175828.889000",
        "175829.858000",
        "175830.865000",
        "175831.881000",
        "175832.881000",
        "175833.897000",
        "175834.879000",
        "175835.866000",
        "175836.877000",
        "175837.871000",
        "175838.897000",
        "175839.866000",
        "175840.886000",
        "175841.862000",
        "175842.873000",
        "175843.868000",
        "175844.878000",
        "175845.867000",
        "175846.873000",
        "175847.875000",
        "175848.881000",
        "175849.858000",
        "175850.869000",
        "175851.886000",
        "175852.847000",
        "175853.877000",
        "175854.905000",
        "175855.832000",
        "175856.891000",
        "175857.858000",
        "175858.901000",
        "175859.859000",
        "175900.879000",
        "175901.838000",
        "175902.893000",
        "175903.863000",
        "175904.852000",
        "175905.934000",
        "175906.854000",
        "175907.873000",
        "175908.895000",
        "175909.903000",
        "175910.879000",
        "175911.877000",
        "175912.902000",
        "175913.906000",
        "175914.911000",
        "175915.881000",
        "175916.891000",
        "175917.875000",
        "175918.880000",
        "175919.881000",
        "175920.865000",
        "175921.873000",
        "175922.872000",
        "175923.872000",
        "175924.868000",
        "175925.889000",
        "175926.873000",
        "175927.858000",
        "175928.893000",
        "175929.897000",
        "175930.870000",
        "175931.886000",
        "175932.906000",
        "175933.844000",
        "175934.993000",
        "175935.886000",
        "175936.912000",
        "175937.880000",
        "175938.928000",
        "175939.891000",
        "175940.880000",
        "175941.888000",
        "175942.891000",
        "175943.869000",
        "175944.898000",
        "175945.889000",
        "175946.895000",
        "175947.867000",
        "175948.885000",
        "175949.868000",
        "175950.878000",
        "175951.893000",
        "175952.912000",
        "175953.886000",
        "175954.881000",
        "175955.906000",
        "175956.878000",
        "175957.902000",
        "175958.878000",
        "175959.872000",
        "180000.857000",
        "180001.962000",
        "180002.866000",
        "180003.868000",
        "180004.861000",
        "180005.878000",
        "180006.872000",
        "180007.878000",
        "180008.894000",
        "180009.922000",
        "180010.873000",
        "180011.951000",
        "180012.893000",
        "180013.907000",
        "180014.879000",
        "180015.873000",
        "180016.891000",
        "180017.889000",
        "180018.899000",
        "180019.869000",
        "180020.865000",
        "180021.874000",
        "180022.857000",
        "180023.891000",
        "180024.867000",
        "180025.881000",
        "180026.874000",
        "180027.863000",
        "180028.870000",
        "180029.889000",
        "180030.883000",
        "180031.871000",
        "180032.864000",
        "180033.853000",
        "180034.882000",
        "180035.909000",
        "180036.886000",
        "180037.964000",
        "180038.911000",
        "180039.904000",
        "180040.887000",
        "180041.868000",
        "180042.885000",
        "180043.875000",
        "180044.882000",
        "180045.879000",
        "180046.876000",
        "180047.902000",
        "180048.866000",
        "180049.888000",
        "180050.877000",
        "180051.872000",
        "180052.871000",
        "180053.860000",
        "180054.895000",
        "180055.908000",
        "180056.891000",
        "180057.866000",
        "180058.880000",
        "180059.864000",
        "180100.870000",
        "180101.878000",
        "180102.918000",
        "180103.876000",
        "180104.868000",
        "180105.890000",
        "180106.881000",
        "180107.881000",
        "180108.871000",
        "180109.850000",
        "180110.864000",
        "180111.860000",
        "180112.884000",
        "180113.881000",
        "180114.883000",
        "180115.861000",
        "180116.877000",
        "180117.889000",
        "180118.888000",
        "180119.887000",
        "180120.909000",
        "180121.864000",
        "180122.870000",
        "180123.881000",
        "180124.880000",
        "180125.854000",
        "180126.873000",
        "180127.877000",
        "180128.864000",
        "180129.857000",
        "180130.873000",
        "180131.883000",
        "180132.888000",
        "180133.888000",
        "180134.877000",
        "180135.864000",
        "180136.856000",
        "180137.871000",
        "180138.880000",
        "180139.848000",
        "180140.875000",
        "180141.881000",
        "180142.891000",
        "180143.888000",
        "180144.883000",
        "180145.879000",
        "180146.872000",
        "180147.863000",
        "180148.885000",
        "180149.859000",
        "180150.893000",
        "180151.868000",
        "180152.861000",
        "180153.889000",
        "180154.887000",
        "180155.863000",
        "180156.889000",
        "180157.884000",
        "180158.869000",
        "180159.906000",
        "180200.921000",
        "180201.897000",
        "180202.874000",
        "180203.878000",
        "180204.909000",
        "180205.859000",
        "180206.874000",
        "180207.888000",
        "180208.854000",
        "180209.892000",
        "180210.876000",
        "180211.879000",
        "180212.885000",
        "180213.866000",
        "180214.858000",
        "180215.930000",
        "180216.901000",
        "180217.858000",
        "180218.869000",
        "180219.920000"
      ],
      "InstanceCreationTime": [
        "175733.055000",
        "175733.885000",
        "175734.898000",
        "175735.871000",
        "175736.871000",
        "175737.878000",
        "175738.875000",
        "175739.883000",
        "175740.895000",
        "175741.910000",
        "175742.853000",
        "175743.870000",
        "175744.861000",
        "175745.852000",
        "175746.872000",
        "175747.871000",
        "175748.878000",
        "175749.879000",
        "175750.910000",
        "175751.835000",
        "175752.888000",
        "175753.868000",
        "175754.883000",
        "175755.878000",
        "175756.859000",
        "175757.884000",
        "175758.855000",
        "175759.880000",
        "175800.870000",
        "175801.866000",
        "175802.881000",
        "175803.873000",
        "175804.904000",
        "175805.896000",
        "175806.915000",
        "175807.911000",
        "175808.904000",
        "175809.890000",
        "175810.910000",
        "175811.883000",
        "175812.874000",
        "175813.912000",
        "175814.906000",
        "175815.856000",
        "175816.901000",
        "175817.878000",
        "175818.851000",
        "175819.876000",
        "175820.862000",
        "175821.860000",
        "175822.847000",
        "175823.911000",
        "175824.853000",
        "175825.871000",
        "175826.877000",
        "175827.914000",
        "175828.889000",
        "175829.858000",
        "175830.865000",
        "175831.881000",
        "175832.881000",
        "175833.897000",
        "175834.879000",
        "175835.866000",
        "175836.877000",
        "175837.871000",
        "175838.897000",
        "175839.866000",
        "175840.886000",
        "175841.862000",
        "175842.873000",
        "175843.868000",
        "175844.878000",
        "175845.867000",
        "175846.873000",
        "175847.875000",
        "175848.881000",
        "175849.858000",
        "175850.869000",
        "175851.886000",
        "175852.847000",
        "175853.877000",
        "175854.905000",
        "175855.832000",
        "175856.891000",
        "175857.858000",
        "175858.901000",
        "175859.859000",
        "175900.879000",
        "175901.838000",
        "175902.893000",
        "175903.863000",
        "175904.852000",
        "175905.934000",
        "175906.854000",
        "175907.873000",
        "175908.895000",
        "175909.903000",
        "175910.879000",
        "175911.877000",
        "175912.902000",
        "175913.906000",
        "175914.911000",
        "175915.881000",
        "175916.891000",
        "175917.875000",
        "175918.880000",
        "175919.881000",
        "175920.865000",
        "175921.873000",
        "175922.872000",
        "175923.872000",
        "175924.868000",
        "175925.889000",
        "175926.873000",
        "175927.858000",
        "175928.893000",
        "175929.897000",
        "175930.870000",
        "175931.886000",
        "175932.906000",
        "175933.844000",
        "175934.993000",
        "175935.886000",
        "175936.912000",
        "175937.880000",
        "175938.928000",
        "175939.891000",
        "175940.880000",
        "175941.888000",
        "175942.891000",
        "175943.869000",
        "175944.898000",
        "175945.889000",
        "175946.895000",
        "175947.867000",
        "175948.885000",
        "175949.868000",
        "175950.878000",
        "175951.893000",
        "175952.912000",
        "175953.886000",
        "175954.881000",
        "175955.906000",
        "175956.878000",
        "175957.902000",
        "175958.878000",
        "175959.872000",
        "180000.857000",
        "180001.962000",
        "180002.866000",
        "180003.868000",
        "180004.861000",
        "180005.878000",
        "180006.872000",
        "180007.878000",
        "180008.894000",
        "180009.922000",
        "180010.873000",
        "180011.951000",
        "180012.893000",
        "180013.907000",
        "180014.879000",
        "180015.873000",
        "180016.891000",
        "180017.889000",
        "180018.899000",
        "180019.869000",
        "180020.865000",
        "180021.874000",
        "180022.857000",
        "180023.891000",
        "180024.867000",
        "180025.881000",
        "180026.874000",
        "180027.863000",
        "180028.870000",
        "180029.889000",
        "180030.883000",
        "180031.871000",
        "180032.864000",
        "180033.853000",
        "180034.882000",
        "180035.909000",
        "180036.886000",
        "180037.964000",
        "180038.911000",
        "180039.904000",
        "180040.887000",
        "180041.868000",
        "180042.885000",
        "180043.875000",
        "180044.882000",
        "180045.879000",
        "180046.876000",
        "180047.902000",
        "180048.866000",
        "180049.888000",
        "180050.877000",
        "180051.872000",
        "180052.871000",
        "180053.860000",
        "180054.895000",
        "180055.908000",
        "180056.891000",
        "180057.866000",
        "180058.880000",
        "180059.864000",
        "180100.870000",
        "180101.878000",
        "180102.918000",
        "180103.876000",
        "180104.868000",
        "180105.890000",
        "180106.881000",
        "180107.881000",
        "180108.871000",
        "180109.850000",
        "180110.864000",
        "180111.860000",
        "180112.884000",
        "180113.881000",
        "180114.883000",
        "180115.861000",
        "180116.877000",
        "180117.889000",
        "180118.888000",
        "180119.887000",
        "180120.909000",
        "180121.864000",
        "180122.870000",
        "180123.881000",
        "180124.880000",
        "180125.854000",
        "180126.873000",
        "180127.877000",
        "180128.864000",
        "180129.857000",
        "180130.873000",
        "180131.883000",
        "180132.888000",
        "180133.888000",
        "180134.877000",
        "180135.864000",
        "180136.856000",
        "180137.871000",
        "180138.880000",
        "180139.848000",
        "180140.875000",
        "180141.881000",
        "180142.891000",
        "180143.888000",
        "180144.883000",
        "180145.879000",
        "180146.872000",
        "180147.863000",
        "180148.885000",
        "180149.859000",
        "180150.893000",
        "180151.868000",
        "180152.861000",
        "180153.889000",
        "180154.887000",
        "180155.863000",
        "180156.889000",
        "180157.884000",
        "180158.869000",
        "180159.906000",
        "180200.921000",
        "180201.897000",
        "180202.874000",
        "180203.878000",
        "180204.909000",
        "180205.859000",
        "180206.874000",
        "180207.888000",
        "180208.854000",
        "180209.892000",
        "180210.876000",
        "180211.879000",
        "180212.885000",
        "180213.866000",
        "180214.858000",
        "180215.930000",
        "180216.901000",
        "180217.858000",
        "180218.869000",
        "180219.920000"
      ],
      "InstanceNumber": [
        1,
        2,
        3,
        4,
        5,
        6,
        7,
        8,
        9,
        10,
        11,
        12,
        13,
        14,
        15,
        16,
        17,
        18,
        19,
        20,
        21,
        22,
        23,
        24,
        25,
        26,
        27,
        28,
        29,
        30,
        31,
        32,
        33,
        34,
        35,
        36,
        37,
        38,
        39,
        40,
        41,
        42,
        43,
        44,
        45,
        46,
        47,
        48,
        49,
        50,
        51,
        52,
        53,
        54,
        55,
        56,
        57,
        58,
        59,
        60,
        61,
        62,
        63,
        64,
        65,
        66,
        67,
        68,
        69,
        70,
        71,
        72,
        73,
        74,
        75,
        76,
        77,
        78,
        79,
        80,
        81,
        82,
        83,
        84,
        85,
        86,
        87,
        88,
        89,
        90,
        91,
        92,
        93,
        94,
        95,
        96,
        97,
        98,
        99,
        100,
        101,
        102,
        103,
        104,
        105,
        106,
        107,
        108,
        109,
        110,
        111,
        112,
        113,
        114,
        115,
        116,
        117,
        118,
        119,
        120,
        121,
        122,
        123,
        124,
        125,
        126,
        127,
        128,
        129,
        130,
        131,
        132,
        133,
        134,
        135,
        136,
        137,
        138,
        139,
        140,
        141,
        142,
        143,
        144,
        145,
        146,
        147,
        148,
        149,
        150,
        151,
        152,
        153,
        154,
        155,
