{
  "AcquisitionMatrixPE": 96,
  "AcquisitionNumber": 1,
  "BandwidthPerPixelPhaseEncode": 18.939,
  "BaseResolution": 96,
  "BodyPartExamined": "BRAIN",
  "ConsistencyInfo": "N4_VE11C_LATEST_20160120",
  "ConversionSoftware": "dcm2niix",
  "ConversionSoftwareVersion": "v1.0.20171215 (OpenJPEG build) GCC6.3.0",
  "DerivedVendorReportedEchoSpacing": 0.000550011,
  "DeviceSerialNumber": "66112",
  "DwellTime": 2.2e-06,
  "EchoTime": 0.033,
  "EchoTrainLength": 96,
  "EffectiveEchoSpacing": 0.000550011,
  "FlipAngle": 59,
  "ImageOrientationPatientDICOM": [
    0.998759,
    0.0444654,
    0.0224395,
    -0.0450041,
    0.998696,
    0.0240982
  ],
  "ImageType": [
    "ORIGINAL",
    "PRIMARY",
    "FMRI",
    "NONE",
    "ND",
    "NORM",
    "MOSAIC"
  ],
  "InPlanePhaseEncodingDirectionDICOM": "COL",
  "InstitutionAddress": "Maynard_3_Hanover_NH_US_03755",
  "InstitutionName": "Dartmouth_College_-_PBS",
  "InstitutionalDepartmentName": "Department",
  "MRAcquisitionType": "2D",
  "MagneticFieldStrength": 3,
  "Manufacturer": "Siemens",
  "ManufacturersModelName": "Prisma",
  "Modality": "MR",
  "MultibandAccelerationFactor": 4,
  "PartialFourier": 1,
  "PatientPosition": "HFS",
  "PercentPhaseFOV": 100,
  "PhaseEncodingDirection": "j-",
  "PhaseEncodingSteps": 96,
  "PhaseResolution": 1,
  "PixelBandwidth": 2365,
  "ProcedureStepDescription": "Gobbini_Matteo_1038_hyperface",
  "ProtocolName": "func_run-06_task-visualmemory",
  "PulseSequenceDetails": "%SiemensSeq%_ep2d_bold",
  "ReceiveCoilActiveElements": "HEA;HEP",
  "ReceiveCoilName": "Head_32",
  "ReconMatrixPE": 96,
  "RepetitionTime": 1,
  "SAR": 0.0453759,
  "ScanOptions": "FS",
  "ScanningSequence": "EP",
  "SequenceName": "_epfid2d1_96",
  "SequenceVariant": "SK",
  "SeriesDescription": "func_run-06_task-visualmemory",
  "SeriesNumber": 42,
  "ShimSetting": [
    4140,
    -7714,
    -7318,
    639,
    -33,
    29,
    3,
    59
  ],
  "SliceThickness": 2.5,
  "SliceTiming": [
    0.735,
    0,
    0.49,
    0.0825,
    0.5725,
    0.1625,
    0.6525,
    0.3275,
    0.8175,
    0.4075,
    0.8975,
    0.245,
    0.735,
    0,
    0.49,
    0.0825,
    0.5725,
    0.1625,
    0.6525,
    0.3275,
    0.8175,
    0.4075,
    0.8975,
    0.245,
    0.735,
    0,
    0.49,
    0.0825,
    0.5725,
    0.1625,
    0.6525,
    0.3275,
    0.8175,
    0.4075,
    0.8975,
    0.245,
    0.735,
    0,
    0.49,
    0.0825,
    0.5725,
    0.1625,
    0.6525,
    0.3275,
    0.8175,
    0.4075,
    0.8975,
    0.245
  ],
  "SoftwareVersions": "syngo_MR_E11",
  "SpacingBetweenSlices": 2.5,
  "StationName": "AWP66112",
  "TotalReadoutTime": 0.0522511,
  "TxRefAmp": 224.91,
  "time": {
    "samples": {
      "AcquisitionNumber": [
        1,
        2,
        3,
        4,
        5,
        6,
        7,
        8,
        9,
        10,
        11,
        12,
        13,
        14,
        15,
        16,
        17,
        18,
        19,
        20,
        21,
        22,
        23,
        24,
        25,
        26,
        27,
        28,
        29,
        30,
        31,
        32,
        33,
        34,
        35,
        36,
        37,
        38,
        39,
        40,
        41,
        42,
        43,
        44,
        45,
        46,
        47,
        48,
        49,
        50,
        51,
        52,
        53,
        54,
        55,
        56,
        57,
        58,
        59,
        60,
        61,
        62,
        63,
        64,
        65,
        66,
        67,
        68,
        69,
        70,
        71,
        72,
        73,
        74,
        75,
        76,
        77,
        78,
        79,
        80,
        81,
        82,
        83,
        84,
        85,
        86,
        87,
        88,
        89,
        90,
        91,
        92,
        93,
        94,
        95,
        96,
        97,
        98,
        99,
        100,
        101,
        102,
        103,
        104,
        105,
        106,
        107,
        108,
        109,
        110,
        111,
        112,
        113,
        114,
        115,
        116,
        117,
        118,
        119,
        120,
        121,
        122,
        123,
        124,
        125,
        126,
        127,
        128,
        129,
        130,
        131,
        132,
        133,
        134,
        135,
        136,
        137,
        138,
        139,
        140,
        141,
        142,
        143,
        144,
        145,
        146,
        147,
        148,
        149,
        150,
        151,
        152,
        153,
        154,
        155,
        156,
        157,
        158,
        159,
        160,
        161,
        162,
        163,
        164,
        165,
        166,
        167,
        168,
        169,
        170,
        171,
        172,
        173,
        174,
        175,
        176,
        177,
        178,
        179,
        180,
        181,
        182,
        183,
        184,
        185,
        186,
        187,
        188,
        189,
        190,
        191,
        192,
        193,
        194,
        195,
        196,
        197,
        198,
        199,
        200,
        201,
        202,
        203,
        204,
        205,
        206,
        207,
        208,
        209,
        210,
        211,
        212,
        213,
        214,
        215,
        216,
        217,
        218,
        219,
        220,
        221,
        222,
        223,
        224,
        225,
        226,
        227,
        228,
        229,
        230,
        231,
        232,
        233,
        234,
        235,
        236,
        237,
        238,
        239,
        240,
        241,
        242,
        243,
        244,
        245,
        246,
        247,
        248,
        249,
        250,
        251,
        252,
        253,
        254,
        255,
        256,
        257,
        258,
        259,
        260,
        261,
        262,
        263,
        264,
        265,
        266,
        267,
        268,
        269,
        270,
        271,
        272,
        273,
        274,
        275,
        276,
        277,
        278,
        279,
        280,
        281,
        282,
        283,
        284,
        285,
        286,
        287,
        288
      ],
      "AcquisitionTime": [
        "174645.940000",
        "174646.940000",
        "174647.940000",
        "174648.940000",
        "174649.940000",
        "174650.940000",
        "174651.940000",
        "174652.940000",
        "174653.940000",
        "174654.940000",
        "174655.940000",
        "174656.940000",
        "174657.940000",
        "174658.940000",
        "174659.940000",
        "174700.940000",
        "174701.940000",
        "174702.940000",
        "174703.940000",
        "174704.940000",
        "174705.940000",
        "174706.940000",
        "174707.940000",
        "174708.940000",
        "174709.940000",
        "174710.940000",
        "174711.940000",
        "174712.940000",
        "174713.940000",
        "174714.940000",
        "174715.940000",
        "174716.940000",
        "174717.940000",
        "174718.940000",
        "174719.940000",
        "174720.940000",
        "174721.940000",
        "174722.940000",
        "174723.940000",
        "174724.940000",
        "174725.940000",
        "174726.940000",
        "174727.940000",
        "174728.940000",
        "174729.940000",
        "174730.940000",
        "174731.940000",
        "174732.940000",
        "174733.940000",
        "174734.940000",
        "174735.940000",
        "174736.940000",
        "174737.940000",
        "174738.940000",
        "174739.940000",
        "174740.940000",
        "174741.940000",
        "174742.940000",
        "174743.940000",
        "174744.940000",
        "174745.940000",
        "174746.940000",
        "174747.940000",
        "174748.940000",
        "174749.940000",
        "174750.940000",
        "174751.940000",
        "174752.940000",
        "174753.940000",
        "174754.940000",
        "174755.940000",
        "174756.940000",
        "174757.940000",
        "174758.940000",
        "174759.940000",
        "174800.940000",
        "174801.940000",
        "174802.940000",
        "174803.940000",
        "174804.940000",
        "174805.940000",
        "174806.940000",
        "174807.940000",
        "174808.940000",
        "174809.940000",
        "174810.940000",
        "174811.940000",
        "174812.940000",
        "174813.940000",
        "174814.940000",
        "174815.940000",
        "174816.940000",
        "174817.940000",
        "174818.940000",
        "174819.940000",
        "174820.940000",
        "174821.940000",
        "174822.940000",
        "174823.940000",
        "174824.940000",
        "174825.940000",
        "174826.940000",
        "174827.940000",
        "174828.940000",
        "174829.940000",
        "174830.940000",
        "174831.940000",
        "174832.940000",
        "174833.940000",
        "174834.940000",
        "174835.940000",
        "174836.940000",
        "174837.940000",
        "174838.940000",
        "174839.940000",
        "174840.940000",
        "174841.940000",
        "174842.940000",
        "174843.940000",
        "174844.940000",
        "174845.940000",
        "174846.940000",
        "174847.940000",
        "174848.940000",
        "174849.940000",
        "174850.940000",
        "174851.940000",
        "174852.940000",
        "174853.940000",
        "174854.940000",
        "174855.940000",
        "174856.940000",
        "174857.940000",
        "174858.940000",
        "174859.940000",
        "174900.940000",
        "174901.940000",
        "174902.940000",
        "174903.940000",
        "174904.940000",
        "174905.940000",
        "174906.940000",
        "174907.940000",
        "174908.940000",
        "174909.940000",
        "174910.940000",
        "174911.940000",
        "174912.940000",
        "174913.940000",
        "174914.940000",
        "174915.940000",
        "174916.940000",
        "174917.940000",
        "174918.940000",
        "174919.940000",
        "174920.940000",
        "174921.940000",
        "174922.940000",
        "174923.940000",
        "174924.940000",
        "174925.940000",
        "174926.940000",
        "174927.940000",
        "174928.940000",
        "174929.940000",
        "174930.940000",
        "174931.940000",
        "174932.940000",
        "174933.940000",
        "174934.940000",
        "174935.940000",
        "174936.940000",
        "174937.940000",
        "174938.940000",
        "174939.940000",
        "174940.940000",
        "174941.940000",
        "174942.940000",
        "174943.940000",
        "174944.940000",
        "174945.940000",
        "174946.940000",
        "174947.940000",
        "174948.940000",
        "174949.940000",
        "174950.940000",
        "174951.940000",
        "174952.940000",
        "174953.940000",
        "174954.940000",
        "174955.940000",
        "174956.940000",
        "174957.940000",
        "174958.940000",
        "174959.940000",
        "175000.940000",
        "175001.940000",
        "175002.940000",
        "175003.940000",
        "175004.940000",
        "175005.940000",
        "175006.940000",
        "175007.940000",
        "175008.940000",
        "175009.940000",
        "175010.940000",
        "175011.940000",
        "175012.940000",
        "175013.940000",
        "175014.940000",
        "175015.940000",
        "175016.940000",
        "175017.940000",
        "175018.940000",
        "175019.940000",
        "175020.940000",
        "175021.940000",
        "175022.940000",
        "175023.940000",
        "175024.940000",
        "175025.940000",
        "175026.940000",
        "175027.940000",
        "175028.940000",
        "175029.940000",
        "175030.940000",
        "175031.940000",
        "175032.940000",
        "175033.940000",
        "175034.940000",
        "175035.940000",
        "175036.940000",
        "175037.940000",
        "175038.940000",
        "175039.940000",
        "175040.940000",
        "175041.940000",
        "175042.940000",
        "175043.940000",
        "175044.940000",
        "175045.940000",
        "175046.940000",
        "175047.940000",
        "175048.940000",
        "175049.940000",
        "175050.940000",
        "175051.940000",
        "175052.940000",
        "175053.940000",
        "175054.940000",
        "175055.940000",
        "175056.940000",
        "175057.940000",
        "175058.940000",
        "175059.940000",
        "175100.940000",
        "175101.940000",
        "175102.940000",
        "175103.940000",
        "175104.940000",
        "175105.940000",
        "175106.940000",
        "175107.940000",
        "175108.940000",
        "175109.940000",
        "175110.940000",
        "175111.940000",
        "175112.940000",
        "175113.940000",
        "175114.940000",
        "175115.940000",
        "175116.940000",
        "175117.940000",
        "175118.940000",
        "175119.940000",
        "175120.940000",
        "175121.940000",
        "175122.940000",
        "175123.940000",
        "175124.940000",
        "175125.940000",
        "175126.940000",
        "175127.940000",
        "175128.940000",
        "175129.940000",
        "175130.940000",
        "175131.940000",
        "175132.940000"
      ],
      "ContentTime": [
        "174647.118000",
        "174648.007000",
        "174649.006000",
        "174650.105000",
        "174651.022000",
        "174651.979000",
        "174652.968000",
        "174654.002000",
        "174654.970000",
        "174655.973000",
        "174656.987000",
        "174657.968000",
        "174658.985000",
        "174659.993000",
        "174700.942000",
        "174701.988000",
        "174702.982000",
        "174703.957000",
        "174704.968000",
        "174705.974000",
        "174706.988000",
        "174707.965000",
        "174708.987000",
        "174709.998000",
        "174710.975000",
        "174711.976000",
        "174713.010000",
        "174714.127000",
        "174715.039000",
        "174716.127000",
        "174716.978000",
        "174718.017000",
        "174718.975000",
        "174720.007000",
        "174721.055000",
        "174722.002000",
        "174722.964000",
        "174723.973000",
        "174724.967000",
        "174725.957000",
        "174726.971000",
        "174727.974000",
        "174728.986000",
        "174729.974000",
        "174731.003000",
        "174731.962000",
        "174732.984000",
        "174733.966000",
        "174734.974000",
        "174735.969000",
        "174736.968000",
        "174737.975000",
        "174738.973000",
        "174739.964000",
        "174741.113000",
        "174741.969000",
        "174742.975000",
        "174743.981000",
        "174744.988000",
        "174745.967000",
        "174746.975000",
        "174747.969000",
        "174748.958000",
        "174749.996000",
        "174751.014000",
        "174752.007000",
        "174752.965000",
        "174753.961000",
        "174754.977000",
        "174755.980000",
        "174756.963000",
        "174757.969000",
        "174758.964000",
        "174759.967000",
        "174800.981000",
        "174801.967000",
        "174802.979000",
        "174803.984000",
        "174804.987000",
        "174805.966000",
        "174806.957000",
        "174807.967000",
        "174808.970000",
        "174809.975000",
        "174810.959000",
        "174811.971000",
        "174813.063000",
        "174813.974000",
        "174814.973000",
        "174815.995000",
        "174816.946000",
        "174818.004000",
        "174818.974000",
        "174819.974000",
        "174820.980000",
        "174822.021000",
        "174822.989000",
        "174823.978000",
        "174825.017000",
        "174826.007000",
        "174827.022000",
        "174828.015000",
        "174829.031000",
        "174830.010000",
        "174831.000000",
        "174832.003000",
        "174832.997000",
        "174834.021000",
        "174834.966000",
        "174835.989000",
        "174836.982000",
        "174837.981000",
        "174838.983000",
        "174840.010000",
        "174840.990000",
        "174841.997000",
        "174842.982000",
        "174843.982000",
        "174844.979000",
        "174845.979000",
        "174846.980000",
        "174847.985000",
        "174848.969000",
        "174849.994000",
        "174851.001000",
        "174851.979000",
        "174852.979000",
        "174853.991000",
        "174855.032000",
        "174855.978000",
        "174857.000000",
        "174857.982000",
        "174858.971000",
        "174900.001000",
        "174900.989000",
        "174901.983000",
        "174902.958000",
        "174903.979000",
        "174905.003000",
        "174906.016000",
        "174907.026000",
        "174907.980000",
        "174908.979000",
        "174910.016000",
        "174910.954000",
        "174912.010000",
        "174913.017000",
        "174914.001000",
        "174914.994000",
        "174916.016000",
        "174916.986000",
        "174917.990000",
        "174918.989000",
        "174919.964000",
        "174920.982000",
        "174921.969000",
        "174922.974000",
        "174923.982000",
        "174924.980000",
        "174925.971000",
        "174926.983000",
        "174927.998000",
        "174928.985000",
        "174929.981000",
        "174931.020000",
        "174931.960000",
        "174932.993000",
        "174933.986000",
        "174934.967000",
        "174935.975000",
        "174936.979000",
        "174937.975000",
        "174938.973000",
        "174939.964000",
        "174940.987000",
        "174941.971000",
        "174942.971000",
        "174943.980000",
        "174944.988000",
        "174946.007000",
        "174946.991000",
        "174947.990000",
        "174948.997000",
        "174950.005000",
        "174951.033000",
        "174952.024000",
        "174953.021000",
        "174954.010000",
        "174954.985000",
        "174955.997000",
        "174956.974000",
        "174957.989000",
        "174958.976000",
        "174959.954000",
        "175000.966000",
        "175001.974000",
        "175002.991000",
        "175003.985000",
        "175004.980000",
        "175005.977000",
        "175006.985000",
        "175008.021000",
        "175008.978000",
        "175009.969000",
        "175010.962000",
        "175011.977000",
        "175012.965000",
        "175013.971000",
        "175015.004000",
        "175015.979000",
        "175016.991000",
        "175017.967000",
        "175018.984000",
        "175019.988000",
        "175020.960000",
        "175021.975000",
        "175022.996000",
        "175023.993000",
        "175025.020000",
        "175025.975000",
        "175027.075000",
        "175027.993000",
        "175028.994000",
        "175029.985000",
        "175030.980000",
        "175031.966000",
        "175032.986000",
        "175033.994000",
        "175035.012000",
        "175036.013000",
        "175036.978000",
        "175038.006000",
        "175038.966000",
        "175039.967000",
        "175040.979000",
        "175041.984000",
        "175042.981000",
        "175043.961000",
        "175044.990000",
        "175045.993000",
        "175046.989000",
        "175047.960000",
        "175048.982000",
        "175049.987000",
        "175050.983000",
        "175051.944000",
        "175052.972000",
        "175053.972000",
        "175054.963000",
        "175055.987000",
        "175056.974000",
        "175057.962000",
        "175059.016000",
        "175059.998000",
        "175100.957000",
        "175101.978000",
        "175102.957000",
        "175103.984000",
        "175105.004000",
        "175105.984000",
        "175106.966000",
        "175107.968000",
        "175108.999000",
        "175109.989000",
        "175110.980000",
        "175112.036000",
        "175112.989000",
        "175113.967000",
        "175114.991000",
        "175115.982000",
        "175116.998000",
        "175118.004000",
        "175118.984000",
        "175120.011000",
        "175120.982000",
        "175121.991000",
        "175122.980000",
        "175123.970000",
        "175124.989000",
        "175125.989000",
        "175126.978000",
        "175127.978000",
        "175128.956000",
        "175130.016000",
        "175130.971000",
        "175131.975000",
        "175132.975000",
        "175133.998000"
      ],
      "InstanceCreationTime": [
        "174647.118000",
        "174648.007000",
        "174649.006000",
        "174650.105000",
        "174651.022000",
        "174651.979000",
        "174652.968000",
        "174654.002000",
        "174654.970000",
        "174655.973000",
        "174656.987000",
        "174657.968000",
        "174658.985000",
        "174659.993000",
        "174700.942000",
        "174701.988000",
        "174702.982000",
        "174703.957000",
        "174704.968000",
        "174705.974000",
        "174706.988000",
        "174707.965000",
        "174708.987000",
        "174709.998000",
        "174710.975000",
        "174711.976000",
        "174713.010000",
        "174714.127000",
        "174715.039000",
        "174716.127000",
        "174716.978000",
        "174718.017000",
        "174718.975000",
        "174720.007000",
        "174721.055000",
        "174722.002000",
        "174722.964000",
        "174723.973000",
        "174724.967000",
        "174725.957000",
        "174726.971000",
        "174727.974000",
        "174728.986000",
        "174729.974000",
        "174731.003000",
        "174731.962000",
        "174732.984000",
        "174733.966000",
        "174734.974000",
        "174735.969000",
        "174736.968000",
        "174737.975000",
        "174738.973000",
        "174739.964000",
        "174741.113000",
        "174741.969000",
        "174742.975000",
        "174743.981000",
        "174744.988000",
        "174745.967000",
        "174746.975000",
        "174747.969000",
        "174748.958000",
        "174749.996000",
        "174751.014000",
        "174752.007000",
        "174752.965000",
        "174753.961000",
        "174754.977000",
        "174755.980000",
        "174756.963000",
        "174757.969000",
        "174758.964000",
        "174759.967000",
        "174800.981000",
        "174801.967000",
        "174802.979000",
        "174803.984000",
        "174804.987000",
        "174805.966000",
        "174806.957000",
        "174807.967000",
        "174808.970000",
        "174809.975000",
        "174810.959000",
        "174811.971000",
        "174813.063000",
        "174813.974000",
        "174814.973000",
        "174815.995000",
        "174816.946000",
        "174818.004000",
        "174818.974000",
        "174819.974000",
        "174820.980000",
        "174822.021000",
        "174822.989000",
        "174823.978000",
        "174825.017000",
        "174826.007000",
        "174827.022000",
        "174828.015000",
        "174829.031000",
        "174830.010000",
        "174831.000000",
        "174832.003000",
        "174832.997000",
        "174834.021000",
        "174834.966000",
        "174835.989000",
        "174836.982000",
        "174837.981000",
        "174838.983000",
        "174840.010000",
        "174840.990000",
        "174841.997000",
        "174842.982000",
        "174843.982000",
        "174844.979000",
        "174845.979000",
        "174846.980000",
        "174847.985000",
        "174848.969000",
        "174849.994000",
        "174851.001000",
        "174851.979000",
        "174852.979000",
        "174853.991000",
        "174855.032000",
        "174855.978000",
        "174857.000000",
        "174857.982000",
        "174858.971000",
        "174900.001000",
        "174900.989000",
        "174901.983000",
        "174902.958000",
        "174903.979000",
        "174905.003000",
        "174906.016000",
        "174907.026000",
        "174907.980000",
        "174908.979000",
        "174910.016000",
        "174910.954000",
        "174912.010000",
        "174913.017000",
        "174914.001000",
        "174914.994000",
        "174916.016000",
        "174916.986000",
        "174917.990000",
        "174918.989000",
        "174919.964000",
        "174920.982000",
        "174921.969000",
        "174922.974000",
        "174923.982000",
        "174924.980000",
        "174925.971000",
        "174926.983000",
        "174927.998000",
        "174928.985000",
        "174929.981000",
        "174931.020000",
        "174931.960000",
        "174932.993000",
        "174933.986000",
        "174934.967000",
        "174935.975000",
        "174936.979000",
        "174937.975000",
        "174938.973000",
        "174939.964000",
        "174940.987000",
        "174941.971000",
        "174942.971000",
        "174943.980000",
        "174944.988000",
        "174946.007000",
        "174946.991000",
        "174947.990000",
        "174948.997000",
        "174950.005000",
        "174951.033000",
        "174952.024000",
        "174953.021000",
        "174954.010000",
        "174954.985000",
        "174955.997000",
        "174956.974000",
        "174957.989000",
        "174958.976000",
        "174959.954000",
        "175000.966000",
        "175001.974000",
        "175002.991000",
        "175003.985000",
        "175004.980000",
        "175005.977000",
        "175006.985000",
        "175008.021000",
        "175008.978000",
        "175009.969000",
        "175010.962000",
        "175011.977000",
        "175012.965000",
        "175013.971000",
        "175015.004000",
        "175015.979000",
        "175016.991000",
        "175017.967000",
        "175018.984000",
        "175019.988000",
        "175020.960000",
        "175021.975000",
        "175022.996000",
        "175023.993000",
        "175025.020000",
        "175025.975000",
        "175027.075000",
        "175027.993000",
        "175028.994000",
        "175029.985000",
        "175030.980000",
        "175031.966000",
        "175032.986000",
        "175033.994000",
        "175035.012000",
        "175036.013000",
        "175036.978000",
        "175038.006000",
        "175038.966000",
        "175039.967000",
        "175040.979000",
        "175041.984000",
        "175042.981000",
        "175043.961000",
        "175044.990000",
        "175045.993000",
        "175046.989000",
        "175047.960000",
        "175048.982000",
        "175049.987000",
        "175050.983000",
        "175051.944000",
        "175052.972000",
        "175053.972000",
        "175054.963000",
        "175055.987000",
        "175056.974000",
        "175057.962000",
        "175059.016000",
        "175059.998000",
        "175100.957000",
        "175101.978000",
        "175102.957000",
        "175103.984000",
        "175105.004000",
        "175105.984000",
        "175106.966000",
        "175107.968000",
        "175108.999000",
        "175109.989000",
        "175110.980000",
        "175112.036000",
        "175112.989000",
        "175113.967000",
        "175114.991000",
        "175115.982000",
        "175116.998000",
        "175118.004000",
        "175118.984000",
        "175120.011000",
        "175120.982000",
        "175121.991000",
        "175122.980000",
        "175123.970000",
        "175124.989000",
        "175125.989000",
        "175126.978000",
        "175127.978000",
        "175128.956000",
        "175130.016000",
        "175130.971000",
        "175131.975000",
        "175132.975000",
        "175133.998000"
      ],
      "InstanceNumber": [
        1,
        2,
        3,
        4,
        5,
        6,
        7,
        8,
        9,
        10,
        11,
        12,
        13,
        14,
        15,
        16,
        17,
        18,
        19,
        20,
        21,
        22,
        23,
        24,
        25,
        26,
        27,
        28,
        29,
        30,
        31,
        32,
        33,
        34,
        35,
        36,
        37,
        38,
        39,
        40,
        41,
        42,
        43,
        44,
        45,
        46,
        47,
        48,
        49,
        50,
        51,
        52,
        53,
        54,
        55,
        56,
        57,
        58,
        59,
        60,
        61,
        62,
        63,
        64,
        65,
        66,
        67,
        68,
        69,
        70,
        71,
        72,
        73,
        74,
        75,
        76,
        77,
        78,
        79,
        80,
        81,
        82,
        83,
        84,
        85,
        86,
        87,
        88,
        89,
        90,
        91,
        92,
        93,
        94,
        95,
        96,
        97,
        98,
        99,
        100,
        101,
        102,
        103,
        104,
        105,
        106,
        107,
        108,
        109,
        110,
        111,
        112,
        113,
        114,
        115,
        116,
        117,
        118,
        119,
        120,
        121,
        122,
        123,
        124,
        125,
        126,
        127,
        128,
        129,
        130,
        131,
        132,
        133,
        134,
        135,
        136,
        137,
        138,
        139,
        140,
        141,
        142,
        143,
        144,
        145,
        146,
        147,
        148,
        149,
        150,
        151,
        152,
        153,
        154,
