{
  "AcquisitionMatrixPE": 96,
  "AcquisitionNumber": 1,
  "BandwidthPerPixelPhaseEncode": 18.939,
  "BaseResolution": 96,
  "BodyPartExamined": "BRAIN",
  "ConsistencyInfo": "N4_VE11C_LATEST_20160120",
  "ConversionSoftware": "dcm2niix",
  "ConversionSoftwareVersion": "v1.0.20171215 (OpenJPEG build) GCC6.3.0",
  "DerivedVendorReportedEchoSpacing": 0.000550011,
  "DeviceSerialNumber": "66112",
  "DwellTime": 2.2e-06,
  "EchoTime": 0.033,
  "EchoTrainLength": 96,
  "EffectiveEchoSpacing": 0.000550011,
  "FlipAngle": 59,
  "ImageOrientationPatientDICOM": [
    0.998759,
    0.0444654,
    0.0224395,
    -0.0450041,
    0.998696,
    0.0240982
  ],
  "ImageType": [
    "ORIGINAL",
    "PRIMARY",
    "FMRI",
    "NONE",
    "ND",
    "NORM",
    "MOSAIC"
  ],
  "InPlanePhaseEncodingDirectionDICOM": "COL",
  "InstitutionAddress": "Maynard_3_Hanover_NH_US_03755",
  "InstitutionName": "Dartmouth_College_-_PBS",
  "InstitutionalDepartmentName": "Department",
  "MRAcquisitionType": "2D",
  "MagneticFieldStrength": 3,
  "Manufacturer": "Siemens",
  "ManufacturersModelName": "Prisma",
  "Modality": "MR",
  "MultibandAccelerationFactor": 4,
  "PatientPosition": "HFS",
  "PercentPhaseFOV": 100,
  "PhaseEncodingDirection": "j-",
  "PhaseEncodingSteps": 96,
  "PhaseResolution": 1,
  "PixelBandwidth": 2365,
  "ProcedureStepDescription": "Gobbini_Matteo_1038_hyperface",
  "ProtocolName": "func_run-04_task-visualmemory",
  "PulseSequenceDetails": "%SiemensSeq%_ep2d_bold",
  "ReceiveCoilActiveElements": "HEA;HEP",
  "ReceiveCoilName": "Head_32",
  "ReconMatrixPE": 96,
  "RepetitionTime": 1,
  "SAR": 0.0453759,
  "ScanOptions": "FS",
  "ScanningSequence": "EP",
  "SequenceName": "_epfid2d1_96",
  "SequenceVariant": "SK",
  "SeriesDescription": "func_run-04_task-visualmemory",
  "SeriesNumber": 28,
  "ShimSetting": [
    4140,
    -7714,
    -7318,
    639,
    -33,
    29,
    3,
    59
  ],
  "SliceThickness": 2.5,
  "SliceTiming": [
    0.735,
    0,
    0.49,
    0.08,
    0.57,
    0.1625,
    0.6525,
    0.325,
    0.815,
    0.4075,
    0.8975,
    0.245,
    0.735,
    0,
    0.49,
    0.08,
    0.57,
    0.1625,
    0.6525,
    0.325,
    0.815,
    0.4075,
    0.8975,
    0.245,
    0.735,
    0,
    0.49,
    0.08,
    0.57,
    0.1625,
    0.6525,
    0.325,
    0.815,
    0.4075,
    0.8975,
    0.245,
    0.735,
    0,
    0.49,
    0.08,
    0.57,
    0.1625,
    0.6525,
    0.325,
    0.815,
    0.4075,
    0.8975,
    0.245
  ],
  "SoftwareVersions": "syngo_MR_E11",
  "SpacingBetweenSlices": 2.5,
  "StationName": "AWP66112",
  "TotalReadoutTime": 0.0522511,
  "TxRefAmp": 224.91,
  "time": {
    "samples": {
      "AcquisitionNumber": [
        1,
        2,
        3,
        4,
        5,
        6,
        7,
        8,
        9,
        10,
        11,
        12,
        13,
        14,
        15,
        16,
        17,
        18,
        19,
        20,
        21,
        22,
        23,
        24,
        25,
        26,
        27,
        28,
        29,
        30,
        31,
        32,
        33,
        34,
        35,
        36,
        37,
        38,
        39,
        40,
        41,
        42,
        43,
        44,
        45,
        46,
        47,
        48,
        49,
        50,
        51,
        52,
        53,
        54,
        55,
        56,
        57,
        58,
        59,
        60,
        61,
        62,
        63,
        64,
        65,
        66,
        67,
        68,
        69,
        70,
        71,
        72,
        73,
        74,
        75,
        76,
        77,
        78,
        79,
        80,
        81,
        82,
        83,
        84,
        85,
        86,
        87,
        88,
        89,
        90,
        91,
        92,
        93,
        94,
        95,
        96,
        97,
        98,
        99,
        100,
        101,
        102,
        103,
        104,
        105,
        106,
        107,
        108,
        109,
        110,
        111,
        112,
        113,
        114,
        115,
        116,
        117,
        118,
        119,
        120,
        121,
        122,
        123,
        124,
        125,
        126,
        127,
        128,
        129,
        130,
        131,
        132,
        133,
        134,
        135,
        136,
        137,
        138,
        139,
        140,
        141,
        142,
        143,
        144,
        145,
        146,
        147,
        148,
        149,
        150,
        151,
        152,
        153,
        154,
        155,
        156,
        157,
        158,
        159,
        160,
        161,
        162,
        163,
        164,
        165,
        166,
        167,
        168,
        169,
        170,
        171,
        172,
        173,
        174,
        175,
        176,
        177,
        178,
        179,
        180,
        181,
        182,
        183,
        184,
        185,
        186,
        187,
        188,
        189,
        190,
        191,
        192,
        193,
        194,
        195,
        196,
        197,
        198,
        199,
        200,
        201,
        202,
        203,
        204,
        205,
        206,
        207,
        208,
        209,
        210,
        211,
        212,
        213,
        214,
        215,
        216,
        217,
        218,
        219,
        220,
        221,
        222,
        223,
        224,
        225,
        226,
        227,
        228,
        229,
        230,
        231,
        232,
        233,
        234,
        235,
        236,
        237,
        238,
        239,
        240,
        241,
        242,
        243,
        244,
        245,
        246,
        247,
        248,
        249,
        250,
        251,
        252,
        253,
        254,
        255,
        256,
        257,
        258,
        259,
        260,
        261,
        262,
        263,
        264,
        265,
        266,
        267,
        268,
        269,
        270,
        271,
        272,
        273,
        274,
        275,
        276,
        277,
        278,
        279,
        280,
        281,
        282,
        283,
        284,
        285,
        286,
        287,
        288
      ],
      "AcquisitionTime": [
        "173555.597500",
        "173556.597500",
        "173557.597500",
        "173558.597500",
        "173559.597500",
        "173600.597500",
        "173601.597500",
        "173602.597500",
        "173603.597500",
        "173604.597500",
        "173605.597500",
        "173606.597500",
        "173607.597500",
        "173608.597500",
        "173609.597500",
        "173610.597500",
        "173611.597500",
        "173612.597500",
        "173613.597500",
        "173614.597500",
        "173615.597500",
        "173616.597500",
        "173617.597500",
        "173618.597500",
        "173619.597500",
        "173620.597500",
        "173621.597500",
        "173622.597500",
        "173623.597500",
        "173624.597500",
        "173625.597500",
        "173626.597500",
        "173627.597500",
        "173628.597500",
        "173629.597500",
        "173630.597500",
        "173631.597500",
        "173632.597500",
        "173633.597500",
        "173634.597500",
        "173635.597500",
        "173636.597500",
        "173637.597500",
        "173638.597500",
        "173639.597500",
        "173640.597500",
        "173641.597500",
        "173642.597500",
        "173643.597500",
        "173644.597500",
        "173645.597500",
        "173646.597500",
        "173647.597500",
        "173648.597500",
        "173649.597500",
        "173650.597500",
        "173651.597500",
        "173652.597500",
        "173653.597500",
        "173654.597500",
        "173655.597500",
        "173656.597500",
        "173657.597500",
        "173658.597500",
        "173659.597500",
        "173700.597500",
        "173701.597500",
        "173702.597500",
        "173703.597500",
        "173704.597500",
        "173705.597500",
        "173706.597500",
        "173707.597500",
        "173708.597500",
        "173709.597500",
        "173710.597500",
        "173711.597500",
        "173712.597500",
        "173713.597500",
        "173714.597500",
        "173715.597500",
        "173716.597500",
        "173717.597500",
        "173718.597500",
        "173719.597500",
        "173720.597500",
        "173721.597500",
        "173722.597500",
        "173723.597500",
        "173724.597500",
        "173725.597500",
        "173726.597500",
        "173727.597500",
        "173728.597500",
        "173729.597500",
        "173730.597500",
        "173731.597500",
        "173732.597500",
        "173733.597500",
        "173734.597500",
        "173735.597500",
        "173736.597500",
        "173737.597500",
        "173738.597500",
        "173739.597500",
        "173740.597500",
        "173741.597500",
        "173742.597500",
        "173743.597500",
        "173744.597500",
        "173745.597500",
        "173746.597500",
        "173747.597500",
        "173748.597500",
        "173749.597500",
        "173750.597500",
        "173751.597500",
        "173752.597500",
        "173753.597500",
        "173754.597500",
        "173755.597500",
        "173756.597500",
        "173757.597500",
        "173758.597500",
        "173759.597500",
        "173800.597500",
        "173801.597500",
        "173802.597500",
        "173803.597500",
        "173804.597500",
        "173805.597500",
        "173806.597500",
        "173807.597500",
        "173808.597500",
        "173809.597500",
        "173810.597500",
        "173811.597500",
        "173812.597500",
        "173813.597500",
        "173814.597500",
        "173815.597500",
        "173816.597500",
        "173817.597500",
        "173818.597500",
        "173819.597500",
        "173820.597500",
        "173821.597500",
        "173822.597500",
        "173823.597500",
        "173824.597500",
        "173825.597500",
        "173826.597500",
        "173827.597500",
        "173828.597500",
        "173829.597500",
        "173830.597500",
        "173831.597500",
        "173832.597500",
        "173833.597500",
        "173834.597500",
        "173835.597500",
        "173836.597500",
        "173837.597500",
        "173838.597500",
        "173839.597500",
        "173840.597500",
        "173841.597500",
        "173842.597500",
        "173843.597500",
        "173844.597500",
        "173845.597500",
        "173846.597500",
        "173847.597500",
        "173848.597500",
        "173849.597500",
        "173850.597500",
        "173851.597500",
        "173852.597500",
        "173853.597500",
        "173854.597500",
        "173855.597500",
        "173856.597500",
        "173857.597500",
        "173858.597500",
        "173859.597500",
        "173900.597500",
        "173901.597500",
        "173902.597500",
        "173903.597500",
        "173904.597500",
        "173905.597500",
        "173906.597500",
        "173907.597500",
        "173908.597500",
        "173909.597500",
        "173910.597500",
        "173911.597500",
        "173912.597500",
        "173913.597500",
        "173914.597500",
        "173915.597500",
        "173916.597500",
        "173917.597500",
        "173918.597500",
        "173919.597500",
        "173920.597500",
        "173921.597500",
        "173922.597500",
        "173923.597500",
        "173924.597500",
        "173925.597500",
        "173926.597500",
        "173927.597500",
        "173928.597500",
        "173929.597500",
        "173930.597500",
        "173931.597500",
        "173932.597500",
        "173933.597500",
        "173934.597500",
        "173935.597500",
        "173936.597500",
        "173937.597500",
        "173938.597500",
        "173939.597500",
        "173940.597500",
        "173941.597500",
        "173942.597500",
        "173943.597500",
        "173944.597500",
        "173945.597500",
        "173946.597500",
        "173947.597500",
        "173948.597500",
        "173949.597500",
        "173950.597500",
        "173951.597500",
        "173952.597500",
        "173953.597500",
        "173954.597500",
        "173955.597500",
        "173956.597500",
        "173957.597500",
        "173958.597500",
        "173959.597500",
        "174000.597500",
        "174001.597500",
        "174002.597500",
        "174003.597500",
        "174004.597500",
        "174005.597500",
        "174006.597500",
        "174007.597500",
        "174008.597500",
        "174009.597500",
        "174010.597500",
        "174011.597500",
        "174012.597500",
        "174013.597500",
        "174014.597500",
        "174015.597500",
        "174016.597500",
        "174017.597500",
        "174018.597500",
        "174019.597500",
        "174020.597500",
        "174021.597500",
        "174022.597500",
        "174023.597500",
        "174024.597500",
        "174025.597500",
        "174026.597500",
        "174027.597500",
        "174028.597500",
        "174029.597500",
        "174030.597500",
        "174031.597500",
        "174032.597500",
        "174033.597500",
        "174034.597500",
        "174035.597500",
        "174036.597500",
        "174037.597500",
        "174038.597500",
        "174039.597500",
        "174040.597500",
        "174041.597500",
        "174042.597500"
      ],
      "ContentTime": [
        "173556.474000",
        "173557.316000",
        "173558.316000",
        "173559.310000",
        "173600.321000",
        "173601.340000",
        "173602.309000",
        "173603.343000",
        "173604.328000",
        "173605.333000",
        "173606.320000",
        "173607.327000",
        "173608.361000",
        "173609.317000",
        "173610.310000",
        "173611.326000",
        "173612.311000",
        "173613.315000",
        "173614.333000",
        "173615.332000",
        "173616.323000",
        "173617.339000",
        "173618.343000",
        "173619.340000",
        "173620.326000",
        "173621.306000",
        "173622.326000",
        "173623.325000",
        "173624.312000",
        "173625.300000",
        "173626.318000",
        "173627.308000",
        "173628.332000",
        "173629.330000",
        "173630.322000",
        "173631.304000",
        "173632.326000",
        "173633.313000",
        "173634.324000",
        "173635.337000",
        "173636.344000",
        "173637.323000",
        "173638.347000",
        "173639.325000",
        "173640.336000",
        "173641.318000",
        "173642.330000",
        "173643.339000",
        "173644.336000",
        "173645.341000",
        "173646.312000",
        "173647.360000",
        "173648.329000",
        "173649.320000",
        "173650.307000",
        "173651.298000",
        "173652.305000",
        "173653.306000",
        "173654.325000",
        "173655.311000",
        "173656.314000",
        "173657.335000",
        "173658.307000",
        "173659.336000",
        "173700.350000",
        "173701.336000",
        "173702.335000",
        "173703.328000",
        "173704.318000",
        "173705.352000",
        "173706.337000",
        "173707.335000",
        "173708.327000",
        "173709.305000",
        "173710.315000",
        "173711.344000",
        "173712.306000",
        "173713.344000",
        "173714.341000",
        "173715.311000",
        "173716.353000",
        "173717.316000",
        "173718.349000",
        "173719.324000",
        "173720.331000",
        "173721.353000",
        "173722.320000",
        "173723.367000",
        "173724.364000",
        "173725.374000",
        "173726.361000",
        "173727.349000",
        "173728.344000",
        "173729.335000",
        "173730.344000",
        "173731.357000",
        "173732.317000",
        "173733.338000",
        "173734.331000",
        "173735.319000",
        "173736.365000",
        "173737.315000",
        "173738.323000",
        "173739.360000",
        "173740.333000",
        "173741.314000",
        "173742.323000",
        "173743.353000",
        "173744.340000",
        "173745.324000",
        "173746.308000",
        "173747.357000",
        "173748.326000",
        "173749.328000",
        "173750.320000",
        "173751.320000",
        "173752.315000",
        "173753.315000",
        "173754.327000",
        "173755.339000",
        "173756.333000",
        "173757.328000",
        "173758.320000",
        "173759.331000",
        "173800.325000",
        "173801.317000",
        "173802.306000",
        "173803.369000",
        "173804.373000",
        "173805.336000",
        "173806.402000",
        "173807.393000",
        "173808.312000",
        "173809.350000",
        "173810.328000",
        "173811.321000",
        "173812.328000",
        "173813.329000",
        "173814.329000",
        "173815.335000",
        "173816.344000",
        "173817.318000",
        "173818.330000",
        "173819.328000",
        "173820.299000",
        "173821.336000",
        "173822.324000",
        "173823.333000",
        "173824.324000",
        "173825.321000",
        "173826.338000",
        "173827.355000",
        "173828.355000",
        "173829.401000",
        "173830.342000",
        "173831.322000",
        "173832.328000",
        "173833.327000",
        "173834.320000",
        "173835.356000",
        "173836.315000",
        "173837.323000",
        "173838.334000",
        "173839.314000",
        "173840.329000",
        "173841.302000",
        "173842.356000",
        "173843.373000",
        "173844.307000",
        "173845.313000",
        "173846.317000",
        "173847.300000",
        "173848.321000",
        "173849.352000",
        "173850.353000",
        "173851.322000",
        "173852.320000",
        "173853.306000",
        "173854.341000",
        "173855.322000",
        "173856.325000",
        "173857.348000",
        "173858.315000",
        "173859.323000",
        "173900.324000",
        "173901.316000",
        "173902.338000",
        "173903.315000",
        "173904.311000",
        "173905.336000",
        "173906.326000",
        "173907.350000",
        "173908.313000",
        "173909.335000",
        "173910.339000",
        "173911.317000",
        "173912.318000",
        "173913.299000",
        "173914.321000",
        "173915.319000",
        "173916.325000",
        "173917.317000",
        "173918.326000",
        "173919.343000",
        "173920.306000",
        "173921.324000",
        "173922.328000",
        "173923.325000",
        "173924.338000",
        "173925.338000",
        "173926.327000",
        "173927.330000",
        "173928.323000",
        "173929.349000",
        "173930.310000",
        "173931.412000",
        "173932.337000",
        "173933.301000",
        "173934.316000",
        "173935.324000",
        "173936.322000",
        "173937.318000",
        "173938.336000",
        "173939.366000",
        "173940.358000",
        "173941.319000",
        "173942.336000",
        "173943.312000",
        "173944.307000",
        "173945.329000",
        "173946.311000",
        "173947.345000",
        "173948.333000",
        "173949.378000",
        "173950.310000",
        "173951.316000",
        "173952.325000",
        "173953.320000",
        "173954.323000",
        "173955.344000",
        "173956.314000",
        "173957.314000",
        "173958.312000",
        "173959.322000",
        "174000.352000",
        "174001.313000",
        "174002.337000",
        "174003.333000",
        "174004.339000",
        "174005.331000",
        "174006.314000",
        "174007.310000",
        "174008.326000",
        "174009.304000",
        "174010.322000",
        "174011.320000",
        "174012.315000",
        "174013.305000",
        "174014.327000",
        "174015.318000",
        "174016.334000",
        "174017.344000",
        "174018.326000",
        "174019.322000",
        "174020.334000",
        "174021.331000",
        "174022.310000",
        "174023.365000",
        "174024.407000",
        "174025.333000",
        "174026.359000",
        "174027.331000",
        "174028.346000",
        "174029.327000",
        "174030.337000",
        "174031.306000",
        "174032.323000",
        "174033.343000",
        "174034.329000",
        "174035.339000",
        "174036.300000",
        "174037.337000",
        "174038.339000",
        "174039.301000",
        "174040.330000",
        "174041.326000",
        "174042.318000",
        "174043.365000"
      ],
      "InstanceCreationTime": [
        "173556.474000",
        "173557.316000",
        "173558.316000",
        "173559.310000",
        "173600.321000",
        "173601.340000",
        "173602.309000",
        "173603.343000",
        "173604.328000",
        "173605.333000",
        "173606.320000",
        "173607.327000",
        "173608.361000",
        "173609.317000",
        "173610.310000",
        "173611.326000",
        "173612.311000",
        "173613.315000",
        "173614.333000",
        "173615.332000",
        "173616.323000",
        "173617.339000",
        "173618.343000",
        "173619.340000",
        "173620.326000",
        "173621.306000",
        "173622.326000",
        "173623.325000",
        "173624.312000",
        "173625.300000",
        "173626.318000",
        "173627.308000",
        "173628.332000",
        "173629.330000",
        "173630.322000",
        "173631.304000",
        "173632.326000",
        "173633.313000",
        "173634.324000",
        "173635.337000",
        "173636.344000",
        "173637.323000",
        "173638.347000",
        "173639.325000",
        "173640.336000",
        "173641.318000",
        "173642.330000",
        "173643.339000",
        "173644.336000",
        "173645.341000",
        "173646.312000",
        "173647.360000",
        "173648.329000",
        "173649.320000",
        "173650.307000",
        "173651.298000",
        "173652.305000",
        "173653.306000",
        "173654.325000",
        "173655.311000",
        "173656.314000",
        "173657.335000",
        "173658.307000",
        "173659.336000",
        "173700.350000",
        "173701.336000",
        "173702.335000",
        "173703.328000",
        "173704.318000",
        "173705.352000",
        "173706.337000",
        "173707.335000",
        "173708.327000",
        "173709.305000",
        "173710.315000",
        "173711.344000",
        "173712.306000",
        "173713.344000",
        "173714.341000",
        "173715.311000",
        "173716.353000",
        "173717.316000",
        "173718.349000",
        "173719.324000",
        "173720.331000",
        "173721.353000",
        "173722.320000",
        "173723.367000",
        "173724.364000",
        "173725.374000",
        "173726.361000",
        "173727.349000",
        "173728.344000",
        "173729.335000",
        "173730.344000",
        "173731.357000",
        "173732.317000",
        "173733.338000",
        "173734.331000",
        "173735.319000",
        "173736.365000",
        "173737.315000",
        "173738.323000",
        "173739.360000",
        "173740.333000",
        "173741.314000",
        "173742.323000",
        "173743.353000",
        "173744.340000",
        "173745.324000",
        "173746.308000",
        "173747.357000",
        "173748.326000",
        "173749.328000",
        "173750.320000",
        "173751.320000",
        "173752.315000",
        "173753.315000",
        "173754.327000",
        "173755.339000",
        "173756.333000",
        "173757.328000",
        "173758.320000",
        "173759.331000",
        "173800.325000",
        "173801.317000",
        "173802.306000",
        "173803.369000",
        "173804.373000",
        "173805.336000",
        "173806.402000",
        "173807.393000",
        "173808.312000",
        "173809.350000",
        "173810.328000",
        "173811.321000",
        "173812.328000",
        "173813.329000",
        "173814.329000",
        "173815.335000",
        "173816.344000",
        "173817.318000",
        "173818.330000",
        "173819.328000",
        "173820.299000",
        "173821.336000",
        "173822.324000",
        "173823.333000",
        "173824.324000",
        "173825.321000",
        "173826.338000",
        "173827.355000",
        "173828.355000",
        "173829.401000",
        "173830.342000",
        "173831.322000",
        "173832.328000",
        "173833.327000",
        "173834.320000",
        "173835.356000",
        "173836.315000",
        "173837.323000",
        "173838.334000",
        "173839.314000",
        "173840.329000",
        "173841.302000",
        "173842.356000",
        "173843.373000",
        "173844.307000",
        "173845.313000",
        "173846.317000",
        "173847.300000",
        "173848.321000",
        "173849.352000",
        "173850.353000",
        "173851.322000",
        "173852.320000",
        "173853.306000",
        "173854.341000",
        "173855.322000",
        "173856.325000",
        "173857.348000",
        "173858.315000",
        "173859.323000",
        "173900.324000",
        "173901.316000",
        "173902.338000",
        "173903.315000",
        "173904.311000",
        "173905.336000",
        "173906.326000",
        "173907.350000",
        "173908.313000",
        "173909.335000",
        "173910.339000",
        "173911.317000",
        "173912.318000",
        "173913.299000",
        "173914.321000",
        "173915.319000",
        "173916.325000",
        "173917.317000",
        "173918.326000",
        "173919.343000",
        "173920.306000",
        "173921.324000",
        "173922.328000",
        "173923.325000",
        "173924.338000",
        "173925.338000",
        "173926.327000",
        "173927.330000",
        "173928.323000",
        "173929.349000",
        "173930.310000",
        "173931.412000",
        "173932.337000",
        "173933.301000",
        "173934.316000",
        "173935.324000",
        "173936.322000",
        "173937.318000",
        "173938.336000",
        "173939.366000",
        "173940.358000",
        "173941.319000",
        "173942.336000",
        "173943.312000",
        "173944.307000",
        "173945.329000",
        "173946.311000",
        "173947.345000",
        "173948.333000",
        "173949.378000",
        "173950.310000",
        "173951.316000",
        "173952.325000",
        "173953.320000",
        "173954.323000",
        "173955.344000",
        "173956.314000",
        "173957.314000",
        "173958.312000",
        "173959.322000",
        "174000.352000",
        "174001.313000",
        "174002.337000",
        "174003.333000",
        "174004.339000",
        "174005.331000",
        "174006.314000",
        "174007.310000",
        "174008.326000",
        "174009.304000",
        "174010.322000",
        "174011.320000",
        "174012.315000",
        "174013.305000",
        "174014.327000",
        "174015.318000",
        "174016.334000",
        "174017.344000",
        "174018.326000",
        "174019.322000",
        "174020.334000",
        "174021.331000",
        "174022.310000",
        "174023.365000",
        "174024.407000",
        "174025.333000",
        "174026.359000",
        "174027.331000",
        "174028.346000",
        "174029.327000",
        "174030.337000",
        "174031.306000",
        "174032.323000",
        "174033.343000",
        "174034.329000",
        "174035.339000",
        "174036.300000",
        "174037.337000",
        "174038.339000",
        "174039.301000",
        "174040.330000",
        "174041.326000",
        "174042.318000",
        "174043.365000"
      ],
      "InstanceNumber": [
        1,
        2,
        3,
        4,
        5,
        6,
        7,
        8,
        9,
        10,
        11,
        12,
        13,
        14,
        15,
        16,
        17,
        18,
        19,
        20,
        21,
        22,
        23,
        24,
        25,
        26,
        27,
        28,
        29,
        30,
        31,
        32,
        33,
        34,
        35,
        36,
        37,
        38,
        39,
        40,
        41,
        42,
        43,
        44,
        45,
        46,
        47,
        48,
        49,
        50,
        51,
        52,
        53,
        54,
        55,
        56,
        57,
        58,
        59,
        60,
        61,
        62,
        63,
        64,
        65,
        66,
        67,
        68,
        69,
        70,
        71,
        72,
        73,
        74,
        75,
        76,
        77,
        78,
        79,
        80,
        81,
        82,
        83,
        84,
        85,
        86,
        87,
        88,
        89,
        90,
        91,
        92,
        93,
        94,
        95,
        96,
        97,
        98,
        99,
        100,
        101,
        102,
        103,
        104,
        105,
        106,
        107,
        108,
        109,
        110,
        111,
        112,
        113,
        114,
        115,
        116,
        117,
        118,
        119,
        120,
        121,
        122,
        123,
        124,
        125,
        126,
        127,
        128,
        129,
        130,
        131,
        132,
        133,
        134,
        135,
        136,
        137,
        138,
        139,
        140,
        141,
        142,
        143,
        144,
        145,
        146,
        147,
        148,
        149,
        150,
        151,
        152,
        153,
        154,
        155,
        156,
        157,
