{
  "AcquisitionMatrixPE": 120,
  "AcquisitionNumber": 1,
  "BandwidthPerPixelPhaseEncode": 13.889,
  "BaseResolution": 120,
  "BodyPartExamined": "BRAIN",
  "ConsistencyInfo": "N4_VE11C_LATEST_20160120",
  "ConversionSoftware": "dcm2niix",
  "ConversionSoftwareVersion": "v1.0.20170923 (OpenJPEG build) GCC6.3.0",
  "DerivedVendorReportedEchoSpacing": 0.000599995,
  "DeviceSerialNumber": "66112",
  "DwellTime": 2e-06,
  "EchoTime": 0.103,
  "EchoTrainLength": 120,
  "EffectiveEchoSpacing": 0.000599995,
  "FlipAngle": 90,
  "ImageType": [
    "ORIGINAL",
    "PRIMARY",
    "DIFFUSION",
    "NONE",
    "ND",
    "NORM",
    "MOSAIC"
  ],
  "InstitutionAddress": "Maynard_3_Hanover_NH_US_03755",
  "InstitutionName": "Dartmouth_College_-_PBS",
  "MagneticFieldStrength": 3,
  "Manufacturer": "Siemens",
  "ManufacturersModelName": "Prisma",
  "Modality": "MR",
  "MultibandAccelerationFactor": 4,
  "PercentPhaseFOV": 100,
  "PhaseEncodingDirection": "j-",
  "PhaseEncodingSteps": 120,
  "PhaseResolution": 1,
  "ProcedureStepDescription": "Gobbini_Matteo_1038_hyperface",
  "ProtocolName": "dwi_acq-2.0mmXhardi96Xsms4X11b0",
  "PulseSequenceDetails": "%SiemensSeq%_ep2d_diff",
  "ReceiveCoilActiveElements": "HEA;HEP",
  "ReceiveCoilName": "Head_32",
  "ReconMatrixPE": 120,
  "RepetitionTime": 2.6,
  "ScanOptions": "FS",
  "ScanningSequence": "EP",
  "SequenceName": "_ep_b0",
  "SequenceVariant": "SK_SP",
  "SeriesDescription": "dwi_acq-2.0mmXhardi96Xsms4X11b0",
  "SliceTiming": [
    1.935,
    0,
    1.29,
    0.1625,
    1.4525,
    0.3225,
    1.6125,
    0.485,
    1.775,
    0.8075,
    2.0975,
    0.9675,
    2.2575,
    1.13,
    2.42,
    0.645,
    1.935,
    0,
    1.29,
    0.1625,
    1.4525,
    0.3225,
    1.6125,
    0.485,
    1.775,
    0.8075,
    2.0975,
    0.9675,
    2.2575,
    1.13,
    2.42,
    0.645,
    1.935,
    0,
    1.29,
    0.1625,
    1.4525,
    0.3225,
    1.6125,
    0.485,
    1.775,
    0.8075,
    2.0975,
    0.9675,
    2.2575,
    1.13,
    2.42,
    0.645,
    1.935,
    0,
    1.29,
    0.1625,
    1.4525,
    0.3225,
    1.6125,
    0.485,
    1.775,
    0.8075,
    2.0975,
    0.9675,
    2.2575,
    1.13,
    2.42,
    0.645
  ],
  "SoftwareVersions": "syngo_MR_E11",
  "StationName": "AWP66112",
  "TotalReadoutTime": 0.0713994,
  "time": {
    "samples": {
      "AcquisitionNumber": [
        1,
        2,
        3,
        4,
        5,
        6,
        7,
        8,
        9,
        10,
        11,
        12,
        13,
        14,
        15,
        16,
        17,
        18,
        19,
        20,
        21,
        22,
        23,
        24,
        25,
        26,
        27,
        28,
        29,
        30,
        31,
        32,
        33,
        34,
        35,
        36,
        37,
        38,
        39,
        40,
        41,
        42,
        43,
        44,
        45,
        46,
        47,
        48,
        49,
        50,
        51,
        52,
        53,
        54,
        55,
        56,
        57,
        58,
        59,
        60,
        61,
        62,
        63,
        64,
        65,
        66,
        67,
        68,
        69,
        70,
        71,
        72,
        73,
        74,
        75,
        76,
        77,
        78,
        79,
        80,
        81,
        82,
        83,
        84,
        85,
        86,
        87,
        88,
        89,
        90,
        91,
        92,
        93,
        94,
        95,
        96,
        97,
        98,
        99,
        100,
        101,
        102,
        103,
        104,
        105,
        106,
        107
      ],
      "AcquisitionTime": [
        "180652.500000",
        "180655.100000",
        "180657.700000",
        "180700.300000",
        "180702.900000",
        "180705.500000",
        "180708.100000",
        "180710.700000",
        "180713.300000",
        "180715.900000",
        "180718.500000",
        "180721.100000",
        "180723.700000",
        "180726.300000",
        "180728.900000",
        "180731.500000",
        "180734.100000",
        "180736.700000",
        "180739.300000",
        "180741.900000",
        "180744.500000",
        "180747.100000",
        "180749.700000",
        "180752.300000",
        "180754.900000",
        "180757.500000",
        "180800.100000",
        "180802.700000",
        "180805.300000",
        "180807.900000",
        "180810.500000",
        "180813.100000",
        "180815.700000",
        "180818.300000",
        "180820.900000",
        "180823.500000",
        "180826.100000",
        "180828.700000",
        "180831.300000",
        "180833.900000",
        "180836.500000",
        "180839.100000",
        "180841.700000",
        "180844.300000",
        "180846.900000",
        "180849.500000",
        "180852.100000",
        "180854.700000",
        "180857.300000",
        "180859.900000",
        "180902.500000",
        "180905.100000",
        "180907.700000",
        "180910.300000",
        "180912.900000",
        "180915.500000",
        "180918.100000",
        "180920.700000",
        "180923.300000",
        "180925.900000",
        "180928.500000",
        "180931.100000",
        "180933.700000",
        "180936.300000",
        "180938.900000",
        "180941.500000",
        "180944.100000",
        "180946.700000",
        "180949.300000",
        "180951.900000",
        "180954.500000",
        "180957.100000",
        "180959.700000",
        "181002.300000",
        "181004.900000",
        "181007.500000",
        "181010.100000",
        "181012.700000",
        "181015.300000",
        "181017.900000",
        "181020.500000",
        "181023.100000",
        "181025.700000",
        "181028.300000",
        "181030.900000",
        "181033.500000",
        "181036.100000",
        "181038.700000",
        "181041.300000",
        "181043.900000",
        "181046.500000",
        "181049.100000",
        "181051.700000",
        "181054.300000",
        "181056.900000",
        "181059.500000",
        "181102.100000",
        "181104.700000",
        "181107.300000",
        "181109.900000",
        "181112.500000",
        "181115.100000",
        "181117.700000",
        "181120.300000",
        "181122.900000",
        "181125.500000",
        "181128.100000"
      ],
      "ContentTime": [
        "180753.845000",
        "180753.849000",
        "180753.852000",
        "180753.855000",
        "180753.858000",
        "180753.861000",
        "180753.864000",
        "180753.867000",
        "180753.870000",
        "180753.873000",
        "180753.876000",
        "180753.879000",
        "180753.882000",
        "180753.885000",
        "180753.892000",
        "180753.902000",
        "180753.905000",
        "180753.908000",
        "180753.911000",
        "180753.914000",
        "180753.917000",
        "180753.920000",
        "180753.923000",
        "180753.926000",
        "180853.840000",
        "180853.843000",
        "180853.847000",
        "180853.850000",
        "180853.853000",
        "180853.856000",
        "180853.859000",
        "180853.862000",
        "180853.865000",
        "180853.868000",
        "180853.871000",
        "180853.874000",
        "180853.877000",
        "180853.880000",
        "180853.884000",
        "180853.887000",
        "180853.890000",
        "180853.893000",
        "180853.896000",
        "180853.899000",
        "180853.902000",
        "180853.905000",
        "180853.908000",
        "180953.839000",
        "180953.843000",
        "180953.846000",
        "180953.849000",
        "180953.852000",
        "180953.855000",
        "180953.858000",
        "180953.861000",
        "180953.864000",
        "180953.867000",
        "180953.870000",
        "180953.874000",
        "180953.877000",
        "180953.880000",
        "180953.883000",
        "180953.886000",
        "180953.889000",
        "180953.892000",
        "180953.895000",
        "180953.898000",
        "180953.901000",
        "180953.905000",
        "180953.908000",
        "181053.840000",
        "181053.844000",
        "181053.847000",
        "181053.850000",
        "181053.853000",
        "181053.856000",
        "181053.859000",
        "181053.862000",
        "181053.865000",
        "181053.868000",
        "181053.871000",
        "181053.875000",
        "181053.878000",
        "181053.881000",
        "181053.884000",
        "181053.887000",
        "181053.890000",
        "181053.893000",
        "181053.896000",
        "181053.900000",
        "181053.903000",
        "181053.906000",
        "181053.909000",
        "181131.792000",
        "181131.796000",
        "181131.799000",
        "181131.802000",
        "181131.805000",
        "181131.808000",
        "181131.811000",
        "181131.814000",
        "181131.818000",
        "181131.838000",
        "181131.841000",
        "181131.844000",
        "181131.847000",
        "181131.850000"
      ],
      "InstanceCreationTime": [
        "180753.845000",
        "180753.849000",
        "180753.852000",
        "180753.855000",
        "180753.858000",
        "180753.861000",
        "180753.864000",
        "180753.867000",
        "180753.870000",
        "180753.873000",
        "180753.876000",
        "180753.879000",
        "180753.882000",
        "180753.885000",
        "180753.892000",
        "180753.902000",
        "180753.905000",
        "180753.908000",
        "180753.911000",
        "180753.914000",
        "180753.917000",
        "180753.920000",
        "180753.923000",
        "180753.926000",
        "180853.840000",
        "180853.843000",
        "180853.847000",
        "180853.850000",
        "180853.853000",
        "180853.856000",
        "180853.859000",
        "180853.862000",
        "180853.865000",
        "180853.868000",
        "180853.871000",
        "180853.874000",
        "180853.877000",
        "180853.880000",
        "180853.884000",
        "180853.887000",
        "180853.890000",
        "180853.893000",
        "180853.896000",
        "180853.899000",
        "180853.902000",
        "180853.905000",
        "180853.908000",
        "180953.839000",
        "180953.843000",
        "180953.846000",
        "180953.849000",
        "180953.852000",
        "180953.855000",
        "180953.858000",
        "180953.861000",
        "180953.864000",
        "180953.867000",
        "180953.870000",
        "180953.874000",
        "180953.877000",
        "180953.880000",
        "180953.883000",
        "180953.886000",
        "180953.889000",
        "180953.892000",
        "180953.895000",
        "180953.898000",
        "180953.901000",
        "180953.905000",
        "180953.908000",
        "181053.840000",
        "181053.844000",
        "181053.847000",
        "181053.850000",
        "181053.853000",
        "181053.856000",
        "181053.859000",
        "181053.862000",
        "181053.865000",
        "181053.868000",
        "181053.871000",
        "181053.875000",
        "181053.878000",
        "181053.881000",
        "181053.884000",
        "181053.887000",
        "181053.890000",
        "181053.893000",
        "181053.896000",
        "181053.900000",
        "181053.903000",
        "181053.906000",
        "181053.909000",
        "181131.792000",
        "181131.796000",
        "181131.799000",
        "181131.802000",
        "181131.805000",
        "181131.808000",
        "181131.811000",
        "181131.814000",
        "181131.818000",
        "181131.838000",
        "181131.841000",
        "181131.844000",
        "181131.847000",
        "181131.850000"
      ],
      "InstanceNumber": [
        1,
        2,
        3,
        4,
        5,
        6,
        7,
        8,
        9,
        10,
        11,
        12,
        13,
        14,
        15,
        16,
        17,
        18,
        19,
        20,
        21,
        22,
        23,
        24,
        25,
        26,
        27,
        28,
        29,
        30,
        31,
        32,
        33,
        34,
        35,
        36,
        37,
        38,
        39,
        40,
        41,
        42,
        43,
        44,
        45,
        46,
        47,
        48,
        49,
        50,
        51,
        52,
        53,
        54,
        55,
        56,
        57,
        58,
        59,
        60,
        61,
        62,
        63,
        64,
        65,
        66,
        67,
        68,
        69,
        70,
        71,
        72,
        73,
        74,
        75,
        76,
        77,
        78,
        79,
        80,
        81,
        82,
        83,
        84,
        85,
        86,
        87,
        88,
        89,
        90,
        91,
        92,
        93,
        94,
        95,
        96,
        97,
        98,
        99,
        100,
        101,
        102,
        103,
        104,
        105,
        106,
        107
      ],
      "LargestImagePixelValue": [
        2444,
        2274,
        592,
        622,
        488,
        540,
        638,
        547,
        563,
        449,
        560,
        2594,
        648,
        532,
        510,
        611,
        562,
        516,
        551,
        508,
        520,
        540,
        2305,
        578,
        618,
        571,
        557,
        605,
        567,
        535,
        530,
        529,
        591,
        2270,
        462,
        523,
        520,
        638,
        483,
        577,
        602,
        496,
        654,
        526,
        2186,
        535,
        475,
        500,
        547,
        590,
        530,
        533,
        572,
        487,
        494,
        2144,
        578,
        558,
        544,
        530,
        566,
        500,
        529,
        565,
        496,
        579,
        2496,
        538,
        507,
        539,
        554,
        455,
        483,
        564,
        534,
        514,
        601,
        2694,
        510,
        547,
        601,
        508,
        583,
        487,
        557,
        620,
        604,
        2380,
        554,
        540,
        578,
        575,
        609,
        571,
        558,
        577,
        550,
        2076,
        493,
        569,
        453,
        480,
        506,
        532,
        517,
        601,
        505
      ],
      "SequenceName": [
        "*ep_b0",
        "*ep_b0",
        "*ep_b1000#2",
        "*ep_b1000#3",
        "*ep_b1000#4",
        "*ep_b1000#5",
        "*ep_b1000#6",
        "*ep_b1000#7",
        "*ep_b1000#8",
        "*ep_b1000#9",
        "*ep_b1000#10",
        "*ep_b0",
        "*ep_b1000#12",
        "*ep_b1000#13",
        "*ep_b1000#14",
        "*ep_b1000#15",
        "*ep_b1000#16",
        "*ep_b1000#17",
        "*ep_b1000#18",
        "*ep_b1000#19",
        "*ep_b1000#20",
        "*ep_b1000#21",
        "*ep_b0",
        "*ep_b1000#23",
        "*ep_b1000#24",
        "*ep_b1000#25",
        "*ep_b1000#26",
        "*ep_b1000#27",
        "*ep_b1000#28",
        "*ep_b1000#29",
        "*ep_b1000#30",
        "*ep_b1000#31",
        "*ep_b1000#32",
        "*ep_b0",
        "*ep_b1000#34",
        "*ep_b1000#35",
        "*ep_b1000#36",
        "*ep_b1000#37",
        "*ep_b1000#38",
        "*ep_b1000#39",
        "*ep_b1000#40",
        "*ep_b1000#41",
        "*ep_b1000#42",
        "*ep_b1000#43",
        "*ep_b0",
        "*ep_b1000#45",
        "*ep_b1000#46",
        "*ep_b1000#47",
        "*ep_b1000#48",
        "*ep_b1000#49",
        "*ep_b1000#50",
        "*ep_b1000#51",
        "*ep_b1000#52",
        "*ep_b1000#53",
        "*ep_b1000#54",
        "*ep_b0",
        "*ep_b1000#56",
        "*ep_b1000#57",
        "*ep_b1000#58",
        "*ep_b1000#59",
        "*ep_b1000#60",
        "*ep_b1000#61",
        "*ep_b1000#62",
        "*ep_b1000#63",
        "*ep_b1000#64",
        "*ep_b1000#65",
        "*ep_b0",
        "*ep_b1000#67",
        "*ep_b1000#68",
        "*ep_b1000#69",
        "*ep_b1000#70",
        "*ep_b1000#71",
        "*ep_b1000#72",
        "*ep_b1000#73",
        "*ep_b1000#74",
        "*ep_b1000#75",
        "*ep_b1000#76",
        "*ep_b0",
        "*ep_b1000#78",
        "*ep_b1000#79",
        "*ep_b1000#80",
        "*ep_b1000#81",
        "*ep_b1000#82",
        "*ep_b1000#83",
        "*ep_b1000#84",
        "*ep_b1000#85",
        "*ep_b1000#86",
        "*ep_b0",
        "*ep_b1000#88",
        "*ep_b1000#89",
        "*ep_b1000#90",
        "*ep_b1000#91",
        "*ep_b1000#92",
        "*ep_b1000#93",
        "*ep_b1000#94",
        "*ep_b1000#95",
        "*ep_b1000#96",
        "*ep_b0",
        "*ep_b1000#98",
        "*ep_b1000#99",
        "*ep_b1000#100",
        "*ep_b1000#101",
        "*ep_b1000#102",
        "*ep_b1000#103",
        "*ep_b1000#104",
        "*ep_b1000#105",
        "*ep_b1000#106"
      ],
      "WindowCenter": [
        235,
        229,
        103,
        108,
        105,
        106,
        105,
        105,
        107,
        102,
        107,
        237,
        107,
        105,
        104,
        107,
        107,
        102,
        107,
        107,
        104,
        106,
        227,
        106,
        107,
        105,
        105,
        107,
        105,
        107,
        102,
        104,
        108,
        224,
        105,
        107,
        102,
        108,
        104,
        106,
        107,
        106,
        104,
        107,
        223,
        105,
        103,
        108,
        105,
        106,
        105,
        105,
        104,
        106,
        106,
        225,
        106,
        104,
        107,
        103,
        107,
        106,
        106,
        104,
        104,
        105,
        234,
        104,
        107,
        105,
        105,
        104,
        103,
        106,
        103,
        106,
        105,
        241,
        107,
        105,
        106,
        105,
        106,
        105,
        106,
        106,
        105,
        229,
        106,
        106,
        107,
        106,
        105,
        104,
        107,
        106,
        105,
        222,
        106,
        105,
        104,
        105,
        105,
        106,
        104,
        106,
        103
      ],
      "WindowWidth": [
        554,
        544,
        262,
        273,
        266,
        269,
        266,
        266,
        271,
        259,
        271,
        553,
        270,
        265,
        263,
        269,
        271,
        260,
        269,
        270,
        262,
        269,
        539,
        267,
        270,
        266,
        267,
        270,
        265,
        269,
        260,
        265,
        272,
        532,
        265,
        269,
        259,
        273,
        263,
        268,
        270,
        267,
        264,
        271,
        532,
        265,
        262,
        273,
        267,
        269,
        265,
        265,
        265,
        267,
        267,
        536,
        269,
        262,
        269,
        262,
        271,
        269,
        267,
        263,
        265,
        266,
        549,
        264,
        271,
        266,
        265,
        262,
        262,
        269,
        262,
        269,
        265,
        560,
        269,
        267,
        268,
        265,
        268,
        266,
        269,
        268,
        266,
        542,
        267,
        269,
        270,
        268,
        266,
        263,
        270,
        267,
        266,
        531,
        267,
        267,
        263,
        265,
        267,
        269,
        263,
        269,
        262
      ]
    },
    "slices": {}
  },
  "CoilCombinationMethod": "Adaptive Combine",
  "NonlinearGradientCorrection": false,
  "MRAcquisitionType": "2D",
  "InstitutionalDepartmentName": "Department",
  "PulseSequenceType": "Spin Echo EPI",
  "B0FieldSource": "pepolar_ses-1"
}
