{
  "AcquisitionMatrixPE": 96,
  "AcquisitionNumber": 1,
  "BandwidthPerPixelPhaseEncode": 18.939,
  "BaseResolution": 96,
  "BodyPartExamined": "BRAIN",
  "ConsistencyInfo": "N4_VE11C_LATEST_20160120",
  "ConversionSoftware": "dcm2niix",
  "ConversionSoftwareVersion": "v1.0.20171215 (OpenJPEG build) GCC6.3.0",
  "DerivedVendorReportedEchoSpacing": 0.000550011,
  "DeviceSerialNumber": "66112",
  "DwellTime": 2.2e-06,
  "EchoTime": 0.033,
  "EchoTrainLength": 96,
  "EffectiveEchoSpacing": 0.000550011,
  "FlipAngle": 59,
  "ImageOrientationPatientDICOM": [
    0.996363,
    -0.0139894,
    0.0840548,
    0.0142607,
    0.999895,
    -0.0026275
  ],
  "ImageType": [
    "ORIGINAL",
    "PRIMARY",
    "FMRI",
    "NONE",
    "ND",
    "NORM",
    "MOSAIC"
  ],
  "InPlanePhaseEncodingDirectionDICOM": "COL",
  "InstitutionAddress": "Maynard_3_Hanover_NH_US_03755",
  "InstitutionName": "Dartmouth_College_-_PBS",
  "InstitutionalDepartmentName": "Department",
  "MRAcquisitionType": "2D",
  "MagneticFieldStrength": 3,
  "Manufacturer": "Siemens",
  "ManufacturersModelName": "Prisma",
  "Modality": "MR",
  "MultibandAccelerationFactor": 4,
  "PatientPosition": "HFS",
  "PercentPhaseFOV": 100,
  "PhaseEncodingDirection": "j-",
  "PhaseEncodingSteps": 96,
  "PhaseResolution": 1,
  "PixelBandwidth": 2365,
  "ProcedureStepDescription": "Gobbini_Matteo_1038_hyperface",
  "ProtocolName": "func_run-04_task-visualmemory",
  "PulseSequenceDetails": "%SiemensSeq%_ep2d_bold",
  "ReceiveCoilActiveElements": "HEA;HEP",
  "ReceiveCoilName": "Head_32",
  "ReconMatrixPE": 96,
  "RepetitionTime": 1,
  "SAR": 0.0472432,
  "ScanOptions": "FS",
  "ScanningSequence": "EP",
  "SequenceName": "_epfid2d1_96",
  "SequenceVariant": "SK",
  "SeriesDescription": "func_run-04_task-visualmemory",
  "SeriesNumber": 29,
  "ShimSetting": [
    4163,
    -7693,
    -7346,
    709,
    -32,
    -86,
    3,
    23
  ],
  "SliceThickness": 2.5,
  "SliceTiming": [
    0.735,
    0,
    0.49,
    0.0825,
    0.5725,
    0.165,
    0.655,
    0.3275,
    0.8175,
    0.41,
    0.9,
    0.245,
    0.735,
    0,
    0.49,
    0.0825,
    0.5725,
    0.165,
    0.655,
    0.3275,
    0.8175,
    0.41,
    0.9,
    0.245,
    0.735,
    0,
    0.49,
    0.0825,
    0.5725,
    0.165,
    0.655,
    0.3275,
    0.8175,
    0.41,
    0.9,
    0.245,
    0.735,
    0,
    0.49,
    0.0825,
    0.5725,
    0.165,
    0.655,
    0.3275,
    0.8175,
    0.41,
    0.9,
    0.245
  ],
  "SoftwareVersions": "syngo_MR_E11",
  "SpacingBetweenSlices": 2.5,
  "StationName": "AWP66112",
  "TotalReadoutTime": 0.0522511,
  "TxRefAmp": 229.552,
  "time": {
    "samples": {
      "AcquisitionNumber": [
        1,
        2,
        3,
        4,
        5,
        6,
        7,
        8,
        9,
        10,
        11,
        12,
        13,
        14,
        15,
        16,
        17,
        18,
        19,
        20,
        21,
        22,
        23,
        24,
        25,
        26,
        27,
        28,
        29,
        30,
        31,
        32,
        33,
        34,
        35,
        36,
        37,
        38,
        39,
        40,
        41,
        42,
        43,
        44,
        45,
        46,
        47,
        48,
        49,
        50,
        51,
        52,
        53,
        54,
        55,
        56,
        57,
        58,
        59,
        60,
        61,
        62,
        63,
        64,
        65,
        66,
        67,
        68,
        69,
        70,
        71,
        72,
        73,
        74,
        75,
        76,
        77,
        78,
        79,
        80,
        81,
        82,
        83,
        84,
        85,
        86,
        87,
        88,
        89,
        90,
        91,
        92,
        93,
        94,
        95,
        96,
        97,
        98,
        99,
        100,
        101,
        102,
        103,
        104,
        105,
        106,
        107,
        108,
        109,
        110,
        111,
        112,
        113,
        114,
        115,
        116,
        117,
        118,
        119,
        120,
        121,
        122,
        123,
        124,
        125,
        126,
        127,
        128,
        129,
        130,
        131,
        132,
        133,
        134,
        135,
        136,
        137,
        138,
        139,
        140,
        141,
        142,
        143,
        144,
        145,
        146,
        147,
        148,
        149,
        150,
        151,
        152,
        153,
        154,
        155,
        156,
        157,
        158,
        159,
        160,
        161,
        162,
        163,
        164,
        165,
        166,
        167,
        168,
        169,
        170,
        171,
        172,
        173,
        174,
        175,
        176,
        177,
        178,
        179,
        180,
        181,
        182,
        183,
        184,
        185,
        186,
        187,
        188,
        189,
        190,
        191,
        192,
        193,
        194,
        195,
        196,
        197,
        198,
        199,
        200,
        201,
        202,
        203,
        204,
        205,
        206,
        207,
        208,
        209,
        210,
        211,
        212,
        213,
        214,
        215,
        216,
        217,
        218,
        219,
        220,
        221,
        222,
        223,
        224,
        225,
        226,
        227,
        228,
        229,
        230,
        231,
        232,
        233,
        234,
        235,
        236,
        237,
        238,
        239,
        240,
        241,
        242,
        243,
        244,
        245,
        246,
        247,
        248,
        249,
        250,
        251,
        252,
        253,
        254,
        255,
        256,
        257,
        258,
        259,
        260,
        261,
        262,
        263,
        264,
        265,
        266,
        267,
        268,
        269,
        270,
        271,
        272,
        273,
        274,
        275,
        276,
        277,
        278,
        279,
        280,
        281,
        282,
        283,
        284,
        285,
        286,
        287,
        288
      ],
      "AcquisitionTime": [
        "103745.037500",
        "103746.037500",
        "103747.037500",
        "103748.037500",
        "103749.037500",
        "103750.037500",
        "103751.037500",
        "103752.037500",
        "103753.037500",
        "103754.037500",
        "103755.037500",
        "103756.037500",
        "103757.037500",
        "103758.037500",
        "103759.037500",
        "103800.037500",
        "103801.037500",
        "103802.037500",
        "103803.037500",
        "103804.037500",
        "103805.037500",
        "103806.037500",
        "103807.037500",
        "103808.037500",
        "103809.037500",
        "103810.037500",
        "103811.037500",
        "103812.037500",
        "103813.037500",
        "103814.037500",
        "103815.037500",
        "103816.037500",
        "103817.037500",
        "103818.037500",
        "103819.037500",
        "103820.037500",
        "103821.037500",
        "103822.037500",
        "103823.037500",
        "103824.037500",
        "103825.037500",
        "103826.037500",
        "103827.037500",
        "103828.037500",
        "103829.037500",
        "103830.037500",
        "103831.037500",
        "103832.037500",
        "103833.037500",
        "103834.037500",
        "103835.037500",
        "103836.037500",
        "103837.037500",
        "103838.037500",
        "103839.037500",
        "103840.037500",
        "103841.037500",
        "103842.037500",
        "103843.037500",
        "103844.037500",
        "103845.037500",
        "103846.037500",
        "103847.037500",
        "103848.037500",
        "103849.037500",
        "103850.037500",
        "103851.037500",
        "103852.037500",
        "103853.037500",
        "103854.037500",
        "103855.037500",
        "103856.037500",
        "103857.037500",
        "103858.037500",
        "103859.037500",
        "103900.037500",
        "103901.037500",
        "103902.037500",
        "103903.037500",
        "103904.037500",
        "103905.037500",
        "103906.037500",
        "103907.037500",
        "103908.037500",
        "103909.037500",
        "103910.037500",
        "103911.037500",
        "103912.037500",
        "103913.037500",
        "103914.037500",
        "103915.037500",
        "103916.037500",
        "103917.037500",
        "103918.037500",
        "103919.037500",
        "103920.037500",
        "103921.037500",
        "103922.037500",
        "103923.037500",
        "103924.037500",
        "103925.037500",
        "103926.037500",
        "103927.037500",
        "103928.037500",
        "103929.037500",
        "103930.037500",
        "103931.037500",
        "103932.037500",
        "103933.037500",
        "103934.037500",
        "103935.037500",
        "103936.037500",
        "103937.037500",
        "103938.037500",
        "103939.037500",
        "103940.037500",
        "103941.037500",
        "103942.037500",
        "103943.037500",
        "103944.037500",
        "103945.037500",
        "103946.037500",
        "103947.037500",
        "103948.037500",
        "103949.037500",
        "103950.037500",
        "103951.037500",
        "103952.037500",
        "103953.037500",
        "103954.037500",
        "103955.037500",
        "103956.037500",
        "103957.037500",
        "103958.037500",
        "103959.037500",
        "104000.037500",
        "104001.037500",
        "104002.037500",
        "104003.037500",
        "104004.037500",
        "104005.037500",
        "104006.037500",
        "104007.037500",
        "104008.037500",
        "104009.037500",
        "104010.037500",
        "104011.037500",
        "104012.037500",
        "104013.037500",
        "104014.037500",
        "104015.037500",
        "104016.037500",
        "104017.037500",
        "104018.037500",
        "104019.037500",
        "104020.037500",
        "104021.037500",
        "104022.037500",
        "104023.037500",
        "104024.037500",
        "104025.037500",
        "104026.037500",
        "104027.037500",
        "104028.037500",
        "104029.037500",
        "104030.037500",
        "104031.037500",
        "104032.037500",
        "104033.037500",
        "104034.037500",
        "104035.037500",
        "104036.037500",
        "104037.037500",
        "104038.037500",
        "104039.037500",
        "104040.037500",
        "104041.037500",
        "104042.037500",
        "104043.037500",
        "104044.037500",
        "104045.037500",
        "104046.037500",
        "104047.037500",
        "104048.037500",
        "104049.037500",
        "104050.037500",
        "104051.037500",
        "104052.037500",
        "104053.037500",
        "104054.037500",
        "104055.037500",
        "104056.037500",
        "104057.037500",
        "104058.037500",
        "104059.037500",
        "104100.037500",
        "104101.037500",
        "104102.037500",
        "104103.037500",
        "104104.037500",
        "104105.037500",
        "104106.037500",
        "104107.037500",
        "104108.037500",
        "104109.037500",
        "104110.037500",
        "104111.037500",
        "104112.037500",
        "104113.037500",
        "104114.037500",
        "104115.037500",
        "104116.037500",
        "104117.037500",
        "104118.037500",
        "104119.037500",
        "104120.037500",
        "104121.037500",
        "104122.037500",
        "104123.037500",
        "104124.037500",
        "104125.037500",
        "104126.037500",
        "104127.037500",
        "104128.037500",
        "104129.037500",
        "104130.037500",
        "104131.037500",
        "104132.037500",
        "104133.037500",
        "104134.037500",
        "104135.037500",
        "104136.037500",
        "104137.037500",
        "104138.037500",
        "104139.037500",
        "104140.037500",
        "104141.037500",
        "104142.037500",
        "104143.037500",
        "104144.037500",
        "104145.037500",
        "104146.037500",
        "104147.037500",
        "104148.037500",
        "104149.037500",
        "104150.037500",
        "104151.037500",
        "104152.037500",
        "104153.037500",
        "104154.037500",
        "104155.037500",
        "104156.037500",
        "104157.037500",
        "104158.037500",
        "104159.037500",
        "104200.037500",
        "104201.037500",
        "104202.037500",
        "104203.037500",
        "104204.037500",
        "104205.037500",
        "104206.037500",
        "104207.037500",
        "104208.037500",
        "104209.037500",
        "104210.037500",
        "104211.037500",
        "104212.037500",
        "104213.037500",
        "104214.037500",
        "104215.037500",
        "104216.037500",
        "104217.037500",
        "104218.037500",
        "104219.037500",
        "104220.037500",
        "104221.037500",
        "104222.037500",
        "104223.037500",
        "104224.037500",
        "104225.037500",
        "104226.037500",
        "104227.037500",
        "104228.037500",
        "104229.037500",
        "104230.037500",
        "104231.037500",
        "104232.037500"
      ],
      "ContentTime": [
        "103746.183000",
        "103747.048000",
        "103748.032000",
        "103749.010000",
        "103749.967000",
        "103750.975000",
        "103752.024000",
        "103753.041000",
        "103753.994000",
        "103754.998000",
        "103755.978000",
        "103756.974000",
        "103757.976000",
        "103759.000000",
        "103759.998000",
        "103800.980000",
        "103801.980000",
        "103803.030000",
        "103803.986000",
        "103804.985000",
        "103806.062000",
        "103807.018000",
        "103807.979000",
        "103809.006000",
        "103809.978000",
        "103810.977000",
        "103811.973000",
        "103812.980000",
        "103814.006000",
        "103814.961000",
        "103815.978000",
        "103816.971000",
        "103817.981000",
        "103818.968000",
        "103819.974000",
        "103821.036000",
        "103822.019000",
        "103823.020000",
        "103824.006000",
        "103824.986000",
        "103825.987000",
        "103826.977000",
        "103827.981000",
        "103828.976000",
        "103829.994000",
        "103830.981000",
        "103831.970000",
        "103833.021000",
        "103833.996000",
        "103834.989000",
        "103835.978000",
        "103836.962000",
        "103838.002000",
        "103838.998000",
        "103839.997000",
        "103840.973000",
        "103841.986000",
        "103843.000000",
        "103844.000000",
        "103844.979000",
        "103845.998000",
        "103846.995000",
        "103847.941000",
        "103848.953000",
        "103850.002000",
        "103850.975000",
        "103851.981000",
        "103852.995000",
        "103853.976000",
        "103854.981000",
        "103855.964000",
        "103856.980000",
        "103857.995000",
        "103858.988000",
        "103859.979000",
        "103900.977000",
        "103901.980000",
        "103902.986000",
        "103903.971000",
        "103904.989000",
        "103906.009000",
        "103906.968000",
        "103908.000000",
        "103909.000000",
        "103909.972000",
        "103910.988000",
        "103911.997000",
        "103912.986000",
        "103913.973000",
        "103914.974000",
        "103915.984000",
        "103916.970000",
        "103917.966000",
        "103918.981000",
        "103920.005000",
        "103920.994000",
        "103921.982000",
        "103922.975000",
        "103923.964000",
        "103924.988000",
        "103926.000000",
        "103926.998000",
        "103927.997000",
        "103928.989000",
        "103929.995000",
        "103930.983000",
        "103931.983000",
        "103933.001000",
        "103933.971000",
        "103935.004000",
        "103935.986000",
        "103936.996000",
        "103938.011000",
        "103938.993000",
        "103939.988000",
        "103940.997000",
        "103941.997000",
        "103942.997000",
        "103943.981000",
        "103944.994000",
        "103945.966000",
        "103947.050000",
        "103948.003000",
        "103948.992000",
        "103949.975000",
        "103951.003000",
        "103952.008000",
        "103952.951000",
        "103954.020000",
        "103954.987000",
        "103955.996000",
        "103956.988000",
        "103957.983000",
        "103958.989000",
        "104000.007000",
        "104000.994000",
        "104002.003000",
        "104002.981000",
        "104004.004000",
        "104004.990000",
        "104005.997000",
        "104006.985000",
        "104007.980000",
        "104008.988000",
        "104009.979000",
        "104010.978000",
        "104011.969000",
        "104012.977000",
        "104013.989000",
        "104014.977000",
        "104015.976000",
        "104016.988000",
        "104018.021000",
        "104019.001000",
        "104020.023000",
        "104021.050000",
        "104021.969000",
        "104023.000000",
        "104024.003000",
        "104024.967000",
        "104025.998000",
        "104026.980000",
        "104027.980000",
        "104029.001000",
        "104029.989000",
        "104030.991000",
        "104031.977000",
        "104032.998000",
        "104033.996000",
        "104034.978000",
        "104035.997000",
        "104036.955000",
        "104037.992000",
        "104038.962000",
        "104039.956000",
        "104040.968000",
        "104041.996000",
        "104042.996000",
        "104044.008000",
        "104044.991000",
        "104045.988000",
        "104047.012000",
        "104047.993000",
        "104049.001000",
        "104049.979000",
        "104050.995000",
        "104052.012000",
        "104052.982000",
        "104054.007000",
        "104055.012000",
        "104056.051000",
        "104057.016000",
        "104057.994000",
        "104058.989000",
        "104100.003000",
        "104100.975000",
        "104102.004000",
        "104103.003000",
        "104103.987000",
        "104104.989000",
        "104105.993000",
        "104107.010000",
        "104108.024000",
        "104108.975000",
        "104109.996000",
        "104110.991000",
        "104111.998000",
        "104113.003000",
        "104113.967000",
        "104114.953000",
        "104116.027000",
        "104116.990000",
        "104118.006000",
        "104118.992000",
        "104119.992000",
        "104120.978000",
        "104121.995000",
        "104122.996000",
        "104123.974000",
        "104124.974000",
        "104125.987000",
        "104127.005000",
        "104127.981000",
        "104128.986000",
        "104130.006000",
        "104130.971000",
        "104131.947000",
        "104132.996000",
        "104133.998000",
        "104135.020000",
        "104135.998000",
        "104136.970000",
        "104137.985000",
        "104138.998000",
        "104140.015000",
        "104140.988000",
        "104142.000000",
        "104142.982000",
        "104143.991000",
        "104145.001000",
        "104146.000000",
        "104147.012000",
        "104147.992000",
        "104148.983000",
        "104149.976000",
        "104150.970000",
        "104152.021000",
        "104153.005000",
        "104153.989000",
        "104154.989000",
        "104156.000000",
        "104157.008000",
        "104158.007000",
        "104158.988000",
        "104159.991000",
        "104200.975000",
        "104202.009000",
        "104202.992000",
        "104203.998000",
        "104205.009000",
        "104206.017000",
        "104206.986000",
        "104208.020000",
        "104208.973000",
        "104209.993000",
        "104211.000000",
        "104211.983000",
        "104212.950000",
        "104213.956000",
        "104215.006000",
        "104215.982000",
        "104217.003000",
        "104217.985000",
        "104218.988000",
        "104219.962000",
        "104221.011000",
        "104221.967000",
        "104222.986000",
        "104223.995000",
        "104224.986000",
        "104225.997000",
        "104226.984000",
        "104227.970000",
        "104228.983000",
        "104229.992000",
        "104230.987000",
        "104232.017000",
        "104233.020000"
      ],
      "InstanceCreationTime": [
        "103746.183000",
        "103747.048000",
        "103748.032000",
        "103749.010000",
        "103749.967000",
        "103750.975000",
        "103752.024000",
        "103753.041000",
        "103753.994000",
        "103754.998000",
        "103755.978000",
        "103756.974000",
        "103757.976000",
        "103759.000000",
        "103759.998000",
        "103800.980000",
        "103801.980000",
        "103803.030000",
        "103803.986000",
        "103804.985000",
        "103806.062000",
        "103807.018000",
        "103807.979000",
        "103809.006000",
        "103809.978000",
        "103810.977000",
        "103811.973000",
        "103812.980000",
        "103814.006000",
        "103814.961000",
        "103815.978000",
        "103816.971000",
        "103817.981000",
        "103818.968000",
        "103819.974000",
        "103821.036000",
        "103822.019000",
        "103823.020000",
        "103824.006000",
        "103824.986000",
        "103825.987000",
        "103826.977000",
        "103827.981000",
        "103828.976000",
        "103829.994000",
        "103830.981000",
        "103831.970000",
        "103833.021000",
        "103833.996000",
        "103834.989000",
        "103835.978000",
        "103836.962000",
        "103838.002000",
        "103838.998000",
        "103839.997000",
        "103840.973000",
        "103841.986000",
        "103843.000000",
        "103844.000000",
        "103844.979000",
        "103845.998000",
        "103846.995000",
        "103847.941000",
        "103848.953000",
        "103850.002000",
        "103850.975000",
        "103851.981000",
        "103852.995000",
        "103853.976000",
        "103854.981000",
        "103855.964000",
        "103856.980000",
        "103857.995000",
        "103858.988000",
        "103859.979000",
        "103900.977000",
        "103901.980000",
        "103902.986000",
        "103903.971000",
        "103904.989000",
        "103906.009000",
        "103906.968000",
        "103908.000000",
        "103909.000000",
        "103909.972000",
        "103910.988000",
        "103911.997000",
        "103912.986000",
        "103913.973000",
        "103914.974000",
        "103915.984000",
        "103916.970000",
        "103917.966000",
        "103918.981000",
        "103920.005000",
        "103920.994000",
        "103921.982000",
        "103922.975000",
        "103923.964000",
        "103924.988000",
        "103926.000000",
        "103926.998000",
        "103927.997000",
        "103928.989000",
        "103929.995000",
        "103930.983000",
        "103931.983000",
        "103933.001000",
        "103933.971000",
        "103935.004000",
        "103935.986000",
        "103936.996000",
        "103938.011000",
        "103938.993000",
        "103939.988000",
        "103940.997000",
        "103941.997000",
        "103942.997000",
        "103943.981000",
        "103944.994000",
        "103945.966000",
        "103947.050000",
        "103948.003000",
        "103948.992000",
        "103949.975000",
        "103951.003000",
        "103952.008000",
        "103952.951000",
        "103954.020000",
        "103954.987000",
        "103955.996000",
        "103956.988000",
        "103957.983000",
        "103958.989000",
        "104000.007000",
        "104000.994000",
        "104002.003000",
        "104002.981000",
        "104004.004000",
        "104004.990000",
        "104005.997000",
        "104006.985000",
        "104007.980000",
        "104008.988000",
        "104009.979000",
        "104010.978000",
        "104011.969000",
        "104012.977000",
        "104013.989000",
        "104014.977000",
        "104015.976000",
        "104016.988000",
        "104018.021000",
        "104019.001000",
        "104020.023000",
        "104021.050000",
        "104021.969000",
        "104023.000000",
        "104024.003000",
        "104024.967000",
        "104025.998000",
        "104026.980000",
        "104027.980000",
        "104029.001000",
        "104029.989000",
        "104030.991000",
        "104031.977000",
        "104032.998000",
        "104033.996000",
        "104034.978000",
        "104035.997000",
        "104036.955000",
        "104037.992000",
        "104038.962000",
        "104039.956000",
        "104040.968000",
        "104041.996000",
        "104042.996000",
        "104044.008000",
        "104044.991000",
        "104045.988000",
        "104047.012000",
        "104047.993000",
        "104049.001000",
        "104049.979000",
        "104050.995000",
        "104052.012000",
        "104052.982000",
        "104054.007000",
        "104055.012000",
        "104056.051000",
        "104057.016000",
        "104057.994000",
        "104058.989000",
        "104100.003000",
        "104100.975000",
        "104102.004000",
        "104103.003000",
        "104103.987000",
        "104104.989000",
        "104105.993000",
        "104107.010000",
        "104108.024000",
        "104108.975000",
        "104109.996000",
        "104110.991000",
        "104111.998000",
        "104113.003000",
        "104113.967000",
        "104114.953000",
        "104116.027000",
        "104116.990000",
        "104118.006000",
        "104118.992000",
        "104119.992000",
        "104120.978000",
        "104121.995000",
        "104122.996000",
        "104123.974000",
        "104124.974000",
        "104125.987000",
        "104127.005000",
        "104127.981000",
        "104128.986000",
        "104130.006000",
        "104130.971000",
        "104131.947000",
        "104132.996000",
        "104133.998000",
        "104135.020000",
        "104135.998000",
        "104136.970000",
        "104137.985000",
        "104138.998000",
        "104140.015000",
        "104140.988000",
        "104142.000000",
        "104142.982000",
        "104143.991000",
        "104145.001000",
        "104146.000000",
        "104147.012000",
        "104147.992000",
        "104148.983000",
        "104149.976000",
        "104150.970000",
        "104152.021000",
        "104153.005000",
        "104153.989000",
        "104154.989000",
        "104156.000000",
        "104157.008000",
        "104158.007000",
        "104158.988000",
        "104159.991000",
        "104200.975000",
        "104202.009000",
        "104202.992000",
        "104203.998000",
        "104205.009000",
        "104206.017000",
        "104206.986000",
        "104208.020000",
        "104208.973000",
        "104209.993000",
        "104211.000000",
        "104211.983000",
        "104212.950000",
        "104213.956000",
        "104215.006000",
        "104215.982000",
        "104217.003000",
        "104217.985000",
        "104218.988000",
        "104219.962000",
        "104221.011000",
        "104221.967000",
        "104222.986000",
        "104223.995000",
        "104224.986000",
        "104225.997000",
        "104226.984000",
        "104227.970000",
        "104228.983000",
        "104229.992000",
        "104230.987000",
        "104232.017000",
        "104233.020000"
      ],
      "InstanceNumber": [
        1,
        2,
        3,
        4,
        5,
        6,
        7,
        8,
        9,
        10,
        11,
        12,
        13,
        14,
        15,
        16,
        17,
        18,
        19,
        20,
        21,
        22,
        23,
        24,
        25,
        26,
        27,
        28,
        29,
        30,
        31,
        32,
        33,
        34,
        35,
        36,
        37,
        38,
        39,
        40,
        41,
        42,
        43,
        44,
        45,
        46,
        47,
        48,
        49,
        50,
        51,
        52,
        53,
        54,
        55,
        56,
        57,
        58,
        59,
        60,
        61,
        62,
        63,
        64,
        65,
        66,
        67,
        68,
        69,
        70,
        71,
        72,
        73,
        74,
        75,
        76,
        77,
        78,
        79,
        80,
        81,
        82,
        83,
        84,
        85,
        86,
        87,
        88,
        89,
        90,
        91,
        92,
        93,
        94,
        95,
        96,
        97,
        98,
        99,
        100,
        101,
        102,
        103,
        104,
        105,
        106,
        107,
        108,
        109,
        110,
        111,
        112,
        113,
        114,
        115,
        116,
        117,
        118,
        119,
        120,
        121,
        122,
        123,
        124,
        125,
        126,
        127,
        128,
        129,
        130,
        131,
        132,
        133,
        134,
        135,
        136,
        137,
        138,
        139,
        140,
        141,
        142,
        143,
        144,
        145,
        146,
        147,
        148,
        149,
        150,
        151,
        152,
        153,
        154,
        155,
        156,
        157,
