{
  "AcquisitionMatrixPE": 96,
  "AcquisitionNumber": 1,
  "AcquisitionTime": "11:29:27.642500",
  "BandwidthPerPixelPhaseEncode": 18.939,
  "BaseResolution": 96,
  "BodyPartExamined": "BRAIN",
  "ConsistencyInfo": "N4_VE11C_LATEST_20160120",
  "ConversionSoftware": "dcm2niix",
  "ConversionSoftwareVersion": "v1.0.20171215 (OpenJPEG build) GCC6.3.0",
  "DerivedVendorReportedEchoSpacing": 0.000550011,
  "DeviceSerialNumber": "66112",
  "DwellTime": 2.2e-06,
  "EchoTime": 0.033,
  "EchoTrainLength": 96,
  "EffectiveEchoSpacing": 0.000550011,
  "FlipAngle": 59,
  "ImageOrientationPatientDICOM": [
    0.999425,
    0.0186473,
    -0.028329,
    -0.0183174,
    0.999762,
    0.01186
  ],
  "ImageType": [
    "ORIGINAL",
    "PRIMARY",
    "FMRI",
    "NONE",
    "ND",
    "NORM",
    "MOSAIC"
  ],
  "InPlanePhaseEncodingDirectionDICOM": "COL",
  "InstitutionAddress": "Maynard_3_Hanover_NH_US_03755",
  "InstitutionName": "Dartmouth_College_-_PBS",
  "InstitutionalDepartmentName": "Department",
  "MRAcquisitionType": "2D",
  "MagneticFieldStrength": 3,
  "Manufacturer": "Siemens",
  "ManufacturersModelName": "Prisma",
  "Modality": "MR",
  "MultibandAccelerationFactor": 4,
  "PatientPosition": "HFS",
  "PercentPhaseFOV": 100,
  "PhaseEncodingDirection": "j-",
  "PhaseEncodingSteps": 96,
  "PhaseResolution": 1,
  "PixelBandwidth": 2365,
  "ProcedureStepDescription": "Gobbini_Matteo_1038_hyperface",
  "ProtocolName": "func_run-02_task-visualmemory",
  "PulseSequenceDetails": "%SiemensSeq%_ep2d_bold",
  "ReceiveCoilActiveElements": "HEA;HEP",
  "ReceiveCoilName": "Head_32",
  "ReconMatrixPE": 96,
  "RepetitionTime": 1,
  "SAR": 0.0471199,
  "ScanOptions": "FS",
  "ScanningSequence": "EP",
  "SequenceName": "_epfid2d1_96",
  "SequenceVariant": "SK",
  "SeriesDescription": "func_run-02_task-visualmemory",
  "SeriesNumber": 15,
  "ShimSetting": [
    4146,
    -7755,
    -7431,
    852,
    -97,
    -440,
    341,
    78
  ],
  "SliceThickness": 2.5,
  "SliceTiming": [
    0.735,
    0,
    0.49,
    0.08,
    0.57,
    0.1625,
    0.6525,
    0.325,
    0.815,
    0.4075,
    0.8975,
    0.245,
    0.735,
    0,
    0.49,
    0.08,
    0.57,
    0.1625,
    0.6525,
    0.325,
    0.815,
    0.4075,
    0.8975,
    0.245,
    0.735,
    0,
    0.49,
    0.08,
    0.57,
    0.1625,
    0.6525,
    0.325,
    0.815,
    0.4075,
    0.8975,
    0.245,
    0.735,
    0,
    0.49,
    0.08,
    0.57,
    0.1625,
    0.6525,
    0.325,
    0.815,
    0.4075,
    0.8975,
    0.245
  ],
  "SoftwareVersions": "syngo_MR_E11",
  "SpacingBetweenSlices": 2.5,
  "StationName": "AWP66112",
  "TotalReadoutTime": 0.0522511,
  "TxRefAmp": 238.973,
  "dcmmeta_affine": [
    [
      -2.4985618591308594,
      -0.04579360783100128,
      -0.07135855406522751,
      123.42772674560547
    ],
    [
      -0.04661831632256508,
      2.4994046688079834,
      0.028335563838481903,
      -104.53662872314453
    ],
    [
      -0.07082252949476242,
      -0.02964990772306919,
      2.4988207817077637,
      -84.08248901367188
    ],
    [
      0.0,
      0.0,
      0.0,
      1.0
    ]
  ],
  "dcmmeta_reorient_transform": [
    [
      0.0,
      -1.0,
      0.0,
      95.0
    ],
    [
      1.0,
      0.0,
      0.0,
      0.0
    ],
    [
      0.0,
      0.0,
      1.0,
      0.0
    ],
    [
      0.0,
      0.0,
      0.0,
      1.0
    ]
  ],
  "dcmmeta_shape": [
    96,
    96,
    48,
    288
  ],
  "dcmmeta_slice_dim": 2,
  "dcmmeta_version": 0.6,
  "global": {
    "const": {
      "AccessionNumber": "A001308",
      "AcquisitionMatrix": [
        96,
        0,
        0,
        96
      ],
      "AngioFlag": "N",
      "BitsAllocated": 16,
      "BitsStored": 12,
      "BodyPartExamined": "BRAIN",
      "Columns": 672,
      "EchoNumbers": 1,
      "EchoTime": 33.0,
      "EchoTrainLength": 96,
      "FlipAngle": 59.0,
      "HighBit": 11,
      "ImageOrientationPatient": [
        0.99942470670223,
        0.01864732660518,
        -0.0283290106365,
        -0.0183174431491,
        0.99976187792586,
        0.01185996301216
      ],
      "ImagePositionPatient": [
        -825.47456020311,
        -866.16144184331,
        -75.041518794415
      ],
      "ImageType": [
        "ORIGINAL",
        "PRIMARY",
        "FMRI",
        "NONE",
        "ND",
        "NORM",
        "MOSAIC"
      ],
      "ImagedNucleus": "1H",
      "ImagingFrequency": 123.252367,
      "InPlanePhaseEncodingDirection": "COL",
      "MRAcquisitionType": "2D",
      "MagneticFieldStrength": 3.0,
      "Manufacturer": "SIEMENS",
      "ManufacturerModelName": "Prisma",
      "Modality": "MR",
      "NumberOfAverages": 1.0,
      "NumberOfPhaseEncodingSteps": 96,
      "PercentPhaseFieldOfView": 100.0,
      "PercentSampling": 100.0,
      "PerformedProcedureStepStartTime": "111704.481000",
      "PhotometricInterpretation": "MONOCHROME2",
      "PixelBandwidth": 2365.0,
      "PixelRepresentation": 0,
      "PixelSpacing": [
        2.5,
        2.5
      ],
      "PositionReferenceIndicator": "",
      "ProtocolName": "func_run-02_task-visualmemory",
      "RepetitionTime": 1000.0,
      "Rows": 672,
      "SAR": 0.0471198857278,
      "SamplesPerPixel": 1,
      "ScanOptions": "FS",
      "ScanningSequence": "EP",
      "SequenceName": "*epfid2d1_96",
      "SequenceVariant": "SK",
      "SeriesDescription": "func_run-02_task-visualmemory",
      "SeriesNumber": 15,
      "SeriesTime": "112928.649000",
      "SliceLocation": -88.750720793228,
      "SliceThickness": 2.5,
      "SmallestImagePixelValue": 0,
      "SoftwareVersions": "syngo MR E11",
      "SpacingBetweenSlices": 2.5000000392414,
      "SpecificCharacterSet": "ISO_IR 100",
      "StudyID": "3",
      "StudyTime": "111704.427000",
      "TransmitCoilName": "Body",
      "VariableFlipAngleFlag": "N",
      "WindowCenterWidthExplanation": "Algo1",
      "dBdt": 0.0
    },
    "slices": {}
  },
  "time": {
    "samples": {
      "AcquisitionNumber": [
        1,
        2,
        3,
        4,
        5,
        6,
        7,
        8,
        9,
        10,
        11,
        12,
        13,
        14,
        15,
        16,
        17,
        18,
        19,
        20,
        21,
        22,
        23,
        24,
        25,
        26,
        27,
        28,
        29,
        30,
        31,
        32,
        33,
        34,
        35,
        36,
        37,
        38,
        39,
        40,
        41,
        42,
        43,
        44,
        45,
        46,
        47,
        48,
        49,
        50,
        51,
        52,
        53,
        54,
        55,
        56,
        57,
        58,
        59,
        60,
        61,
        62,
        63,
        64,
        65,
        66,
        67,
        68,
        69,
        70,
        71,
        72,
        73,
        74,
        75,
        76,
        77,
        78,
        79,
        80,
        81,
        82,
        83,
        84,
        85,
        86,
        87,
        88,
        89,
        90,
        91,
        92,
        93,
        94,
        95,
        96,
        97,
        98,
        99,
        100,
        101,
        102,
        103,
        104,
        105,
        106,
        107,
        108,
        109,
        110,
        111,
        112,
        113,
        114,
        115,
        116,
        117,
        118,
        119,
        120,
        121,
        122,
        123,
        124,
        125,
        126,
        127,
        128,
        129,
        130,
        131,
        132,
        133,
        134,
        135,
        136,
        137,
        138,
        139,
        140,
        141,
        142,
        143,
        144,
        145,
        146,
        147,
        148,
        149,
        150,
        151,
        152,
        153,
        154,
        155,
        156,
        157,
        158,
        159,
        160,
        161,
        162,
        163,
        164,
        165,
        166,
        167,
        168,
        169,
        170,
        171,
        172,
        173,
        174,
        175,
        176,
        177,
        178,
        179,
        180,
        181,
        182,
        183,
        184,
        185,
        186,
        187,
        188,
        189,
        190,
        191,
        192,
        193,
        194,
        195,
        196,
        197,
        198,
        199,
        200,
        201,
        202,
        203,
        204,
        205,
        206,
        207,
        208,
        209,
        210,
        211,
        212,
        213,
        214,
        215,
        216,
        217,
        218,
        219,
        220,
        221,
        222,
        223,
        224,
        225,
        226,
        227,
        228,
        229,
        230,
        231,
        232,
        233,
        234,
        235,
        236,
        237,
        238,
        239,
        240,
        241,
        242,
        243,
        244,
        245,
        246,
        247,
        248,
        249,
        250,
        251,
        252,
        253,
        254,
        255,
        256,
        257,
        258,
        259,
        260,
        261,
        262,
        263,
        264,
        265,
        266,
        267,
        268,
        269,
        270,
        271,
        272,
        273,
        274,
        275,
        276,
        277,
        278,
        279,
        280,
        281,
        282,
        283,
        284,
        285,
        286,
        287,
        288
      ],
      "AcquisitionTime": [
        "112927.642500",
        "112928.642500",
        "112929.642500",
        "112930.642500",
        "112931.642500",
        "112932.642500",
        "112933.642500",
        "112934.642500",
        "112935.642500",
        "112936.642500",
        "112937.642500",
        "112938.642500",
        "112939.642500",
        "112940.642500",
        "112941.642500",
        "112942.642500",
        "112943.642500",
        "112944.642500",
        "112945.642500",
        "112946.642500",
        "112947.642500",
        "112948.642500",
        "112949.642500",
        "112950.642500",
        "112951.642500",
        "112952.642500",
        "112953.642500",
        "112954.642500",
        "112955.642500",
        "112956.642500",
        "112957.642500",
        "112958.642500",
        "112959.642500",
        "113000.642500",
        "113001.642500",
        "113002.642500",
        "113003.642500",
        "113004.642500",
        "113005.642500",
        "113006.642500",
        "113007.642500",
        "113008.642500",
        "113009.642500",
        "113010.642500",
        "113011.642500",
        "113012.642500",
        "113013.642500",
        "113014.642500",
        "113015.642500",
        "113016.642500",
        "113017.642500",
        "113018.642500",
        "113019.642500",
        "113020.642500",
        "113021.642500",
        "113022.642500",
        "113023.642500",
        "113024.642500",
        "113025.642500",
        "113026.642500",
        "113027.642500",
        "113028.642500",
        "113029.642500",
        "113030.642500",
        "113031.642500",
        "113032.642500",
        "113033.642500",
        "113034.642500",
        "113035.642500",
        "113036.642500",
        "113037.642500",
        "113038.642500",
        "113039.642500",
        "113040.642500",
        "113041.642500",
        "113042.642500",
        "113043.642500",
        "113044.642500",
        "113045.642500",
        "113046.642500",
        "113047.642500",
        "113048.642500",
        "113049.642500",
        "113050.642500",
        "113051.642500",
        "113052.642500",
        "113053.642500",
        "113054.642500",
        "113055.642500",
        "113056.642500",
        "113057.642500",
        "113058.642500",
        "113059.642500",
        "113100.642500",
        "113101.642500",
        "113102.642500",
        "113103.642500",
        "113104.642500",
        "113105.642500",
        "113106.642500",
        "113107.642500",
        "113108.642500",
        "113109.642500",
        "113110.642500",
        "113111.642500",
        "113112.642500",
        "113113.642500",
        "113114.642500",
        "113115.642500",
        "113116.642500",
        "113117.642500",
        "113118.642500",
        "113119.642500",
        "113120.642500",
        "113121.642500",
        "113122.642500",
        "113123.642500",
        "113124.642500",
        "113125.642500",
        "113126.642500",
        "113127.642500",
        "113128.642500",
        "113129.642500",
        "113130.642500",
        "113131.642500",
        "113132.642500",
        "113133.642500",
        "113134.642500",
        "113135.642500",
        "113136.642500",
        "113137.642500",
        "113138.642500",
        "113139.642500",
        "113140.642500",
        "113141.642500",
        "113142.642500",
        "113143.642500",
        "113144.642500",
        "113145.642500",
        "113146.642500",
        "113147.642500",
        "113148.642500",
        "113149.642500",
        "113150.642500",
        "113151.642500",
        "113152.642500",
        "113153.642500",
        "113154.642500",
        "113155.642500",
        "113156.642500",
        "113157.642500",
        "113158.642500",
        "113159.642500",
        "113200.642500",
        "113201.642500",
        "113202.642500",
        "113203.642500",
        "113204.642500",
        "113205.642500",
        "113206.642500",
        "113207.642500",
        "113208.642500",
        "113209.642500",
        "113210.642500",
        "113211.642500",
        "113212.642500",
        "113213.642500",
        "113214.642500",
        "113215.642500",
        "113216.642500",
        "113217.642500",
        "113218.642500",
        "113219.642500",
        "113220.642500",
        "113221.642500",
        "113222.642500",
        "113223.642500",
        "113224.642500",
        "113225.642500",
        "113226.642500",
        "113227.642500",
        "113228.642500",
        "113229.642500",
        "113230.642500",
        "113231.642500",
        "113232.642500",
        "113233.642500",
        "113234.642500",
        "113235.642500",
        "113236.642500",
        "113237.642500",
        "113238.642500",
        "113239.642500",
        "113240.642500",
        "113241.642500",
        "113242.642500",
        "113243.642500",
        "113244.642500",
        "113245.642500",
        "113246.642500",
        "113247.642500",
        "113248.642500",
        "113249.642500",
        "113250.642500",
        "113251.642500",
        "113252.642500",
        "113253.642500",
        "113254.642500",
        "113255.642500",
        "113256.642500",
        "113257.642500",
        "113258.642500",
        "113259.642500",
        "113300.642500",
        "113301.642500",
        "113302.642500",
        "113303.642500",
        "113304.642500",
        "113305.642500",
        "113306.642500",
        "113307.642500",
        "113308.642500",
        "113309.642500",
        "113310.642500",
        "113311.642500",
        "113312.642500",
        "113313.642500",
        "113314.642500",
        "113315.642500",
        "113316.642500",
        "113317.642500",
        "113318.642500",
        "113319.642500",
        "113320.642500",
        "113321.642500",
        "113322.642500",
        "113323.642500",
        "113324.642500",
        "113325.642500",
        "113326.642500",
        "113327.642500",
        "113328.642500",
        "113329.642500",
        "113330.642500",
        "113331.642500",
        "113332.642500",
        "113333.642500",
        "113334.642500",
        "113335.642500",
        "113336.642500",
        "113337.642500",
        "113338.642500",
        "113339.642500",
        "113340.642500",
        "113341.642500",
        "113342.642500",
        "113343.642500",
        "113344.642500",
        "113345.642500",
        "113346.642500",
        "113347.642500",
        "113348.642500",
        "113349.642500",
        "113350.642500",
        "113351.642500",
        "113352.642500",
        "113353.642500",
        "113354.642500",
        "113355.642500",
        "113356.642500",
        "113357.642500",
        "113358.642500",
        "113359.642500",
        "113400.642500",
        "113401.642500",
        "113402.642500",
        "113403.642500",
        "113404.642500",
        "113405.642500",
        "113406.642500",
        "113407.642500",
        "113408.642500",
        "113409.642500",
        "113410.642500",
        "113411.642500",
        "113412.642500",
        "113413.642500",
        "113414.642500"
      ],
      "ContentTime": [
        "112928.653000",
        "112929.525000",
        "112930.529000",
        "112931.504000",
        "112932.523000",
        "112933.525000",
        "112934.530000",
        "112935.524000",
        "112936.524000",
        "112937.533000",
        "112938.521000",
        "112939.578000",
        "112940.596000",
        "112941.562000",
        "112942.579000",
        "112943.579000",
        "112944.526000",
        "112945.525000",
        "112946.577000",
        "112947.539000",
        "112948.553000",
        "112949.541000",
        "112950.518000",
        "112951.530000",
        "112952.536000",
        "112953.532000",
        "112954.524000",
        "112955.516000",
        "112956.568000",
        "112957.546000",
        "112958.528000",
        "112959.509000",
        "113000.519000",
        "113001.515000",
        "113002.542000",
        "113003.545000",
        "113004.519000",
        "113005.551000",
        "113006.541000",
        "113007.519000",
        "113008.503000",
        "113009.552000",
        "113010.566000",
        "113011.550000",
        "113012.557000",
        "113013.575000",
        "113014.572000",
        "113015.567000",
        "113016.577000",
        "113017.556000",
        "113018.517000",
        "113019.534000",
        "113020.543000",
        "113021.525000",
        "113022.540000",
        "113023.541000",
        "113024.498000",
        "113025.567000",
        "113026.502000",
        "113027.532000",
        "113028.529000",
        "113029.523000",
        "113030.511000",
        "113031.516000",
        "113032.524000",
        "113033.554000",
        "113034.537000",
        "113035.596000",
        "113036.508000",
        "113037.499000",
        "113038.523000",
        "113039.551000",
        "113040.511000",
        "113041.535000",
        "113042.534000",
        "113043.509000",
        "113044.522000",
        "113045.519000",
        "113046.558000",
        "113047.547000",
        "113048.513000",
        "113049.546000",
        "113050.561000",
        "113051.554000",
        "113052.538000",
        "113053.542000",
        "113054.516000",
        "113055.547000",
        "113056.525000",
        "113057.524000",
        "113058.555000",
        "113059.526000",
        "113100.521000",
        "113101.545000",
        "113102.515000",
        "113103.502000",
        "113104.536000",
        "113105.558000",
        "113106.533000",
        "113107.510000",
        "113108.538000",
        "113109.550000",
        "113110.537000",
        "113111.600000",
        "113112.564000",
        "113113.547000",
        "113114.535000",
        "113115.532000",
        "113116.565000",
        "113117.554000",
        "113118.532000",
        "113119.554000",
        "113120.528000",
        "113121.524000",
        "113122.566000",
        "113123.532000",
        "113124.538000",
        "113125.521000",
        "113126.513000",
        "113127.568000",
        "113128.528000",
        "113129.516000",
        "113130.537000",
        "113131.539000",
        "113132.528000",
        "113133.579000",
        "113134.502000",
        "113135.520000",
        "113136.545000",
        "113137.532000",
        "113138.540000",
        "113139.543000",
        "113140.545000",
        "113141.557000",
        "113142.547000",
        "113143.534000",
        "113144.549000",
        "113145.528000",
        "113146.527000",
        "113147.524000",
        "113148.514000",
        "113149.522000",
        "113150.557000",
        "113151.561000",
        "113152.539000",
        "113153.502000",
        "113154.501000",
        "113155.541000",
        "113156.547000",
        "113157.569000",
        "113158.548000",
        "113159.534000",
        "113200.546000",
        "113201.586000",
        "113202.581000",
        "113203.551000",
        "113204.548000",
        "113205.536000",
        "113206.575000",
        "113207.532000",
        "113208.520000",
        "113209.530000",
        "113210.534000",
        "113211.535000",
        "113212.524000",
        "113213.576000",
        "113214.510000",
        "113215.566000",
        "113216.530000",
        "113217.525000",
        "113218.528000",
        "113219.558000",
        "113220.536000",
        "113221.551000",
        "113222.606000",
        "113223.515000",
        "113224.500000",
        "113225.539000",
        "113226.514000",
        "113227.532000",
        "113228.510000",
        "113229.540000",
        "113230.540000",
        "113231.502000",
        "113232.554000",
        "113233.540000",
        "113234.535000",
        "113235.551000",
        "113236.574000",
        "113237.531000",
        "113238.569000",
        "113239.522000",
        "113240.535000",
        "113241.557000",
        "113242.540000",
        "113243.524000",
        "113244.538000",
        "113245.512000",
        "113246.534000",
        "113247.545000",
        "113248.551000",
        "113249.534000",
        "113250.543000",
        "113251.540000",
        "113252.544000",
        "113253.536000",
        "113254.525000",
        "113255.524000",
        "113256.533000",
        "113257.540000",
        "113258.601000",
        "113259.552000",
        "113300.512000",
        "113301.524000",
        "113302.613000",
        "113303.503000",
        "113304.579000",
        "113305.546000",
        "113306.522000",
        "113307.631000",
        "113308.554000",
        "113309.533000",
        "113310.556000",
        "113311.541000",
        "113312.514000",
        "113313.552000",
        "113314.544000",
        "113315.534000",
        "113316.521000",
        "113317.535000",
        "113318.537000",
        "113319.552000",
        "113320.536000",
        "113321.535000",
        "113322.537000",
        "113323.540000",
        "113324.540000",
        "113325.537000",
        "113326.502000",
        "113327.533000",
        "113328.539000",
        "113329.535000",
        "113330.533000",
        "113331.533000",
        "113332.544000",
        "113333.568000",
        "113334.525000",
        "113335.549000",
        "113336.556000",
        "113337.563000",
        "113338.574000",
        "113339.501000",
        "113340.535000",
        "113341.539000",
        "113342.579000",
        "113343.661000",
        "113344.567000",
        "113345.543000",
        "113346.560000",
        "113347.547000",
        "113348.561000",
        "113349.497000",
        "113350.552000",
        "113351.549000",
        "113352.539000",
        "113353.562000",
        "113354.549000",
        "113355.531000",
        "113356.518000",
        "113357.568000",
        "113358.507000",
        "113359.539000",
        "113400.540000",
        "113401.548000",
        "113402.560000",
        "113403.539000",
        "113404.546000",
        "113405.569000",
        "113406.546000",
        "113407.524000",
        "113408.531000",
        "113409.541000",
        "113410.531000",
        "113411.514000",
        "113412.549000",
        "113413.508000",
        "113414.531000",
        "113415.573000"
      ],
      "InstanceCreationTime": [
        "112928.653000",
        "112929.525000",
        "112930.529000",
        "112931.504000",
        "112932.523000",
        "112933.525000",
        "112934.530000",
        "112935.524000",
        "112936.524000",
        "112937.533000",
        "112938.521000",
        "112939.578000",
        "112940.596000",
        "112941.562000",
        "112942.579000",
        "112943.579000",
        "112944.526000",
        "112945.525000",
        "112946.577000",
        "112947.539000",
        "112948.553000",
        "112949.541000",
        "112950.518000",
        "112951.530000",
        "112952.536000",
        "112953.532000",
        "112954.524000",
        "112955.516000",
        "112956.568000",
        "112957.546000",
        "112958.528000",
        "112959.509000",
        "113000.519000",
        "113001.515000",
        "113002.542000",
        "113003.545000",
        "113004.519000",
        "113005.551000",
        "113006.541000",
        "113007.519000",
        "113008.503000",
        "113009.552000",
        "113010.566000",
        "113011.550000",
        "113012.557000",
        "113013.575000",
        "113014.572000",
        "113015.567000",
        "113016.577000",
        "113017.556000",
        "113018.517000",
        "113019.534000",
        "113020.543000",
        "113021.525000",
        "113022.540000",
        "113023.541000",
        "113024.498000",
        "113025.567000",
        "113026.502000",
        "113027.532000",
        "113028.529000",
        "113029.523000",
        "113030.511000",
        "113031.516000",
        "113032.524000",
        "113033.554000",
        "113034.537000",
        "113035.596000",
        "113036.508000",
        "113037.499000",
        "113038.523000",
        "113039.551000",
        "113040.511000",
        "113041.535000",
        "113042.534000",
        "113043.509000",
        "113044.522000",
        "113045.519000",
        "113046.558000",
        "113047.547000",
        "113048.513000",
        "113049.546000",
        "113050.561000",
        "113051.554000",
        "113052.538000",
        "113053.542000",
        "113054.516000",
        "113055.547000",
        "113056.525000",
        "113057.524000",
        "113058.555000",
        "113059.526000",
        "113100.521000",
        "113101.545000",
        "113102.515000",
        "113103.502000",
        "113104.536000",
        "113105.558000",
        "113106.533000",
        "113107.510000",
        "113108.538000",
        "113109.550000",
        "113110.537000",
        "113111.600000",
        "113112.564000",
        "113113.547000",
        "113114.535000",
        "113115.532000",
        "113116.565000",
        "113117.554000",
        "113118.532000",
        "113119.554000",
        "113120.528000",
        "113121.524000",
        "113122.566000",
        "113123.532000",
        "113124.538000",
        "113125.521000",
        "113126.513000",
        "113127.568000",
        "113128.528000",
        "113129.516000",
        "113130.537000",
        "113131.539000",
        "113132.528000",
        "113133.579000",
        "113134.502000",
        "113135.520000",
        "113136.545000",
        "113137.532000",
        "113138.540000",
        "113139.543000",
        "113140.545000",
        "113141.557000",
        "113142.547000",
        "113143.534000",
        "113144.549000",
        "113145.528000",
        "113146.527000",
        "113147.524000",
        "113148.514000",
        "113149.522000",
        "113150.557000",
        "113151.561000",
        "113152.539000",
        "113153.502000",
        "113154.501000",
        "113155.541000",
        "113156.547000",
        "113157.569000",
        "113158.548000",
        "113159.534000",
        "113200.546000",
        "113201.586000",
        "113202.581000",
        "113203.551000",
        "113204.548000",
        "113205.536000",
        "113206.575000",
        "113207.532000",
        "113208.520000",
        "113209.530000",
        "113210.534000",
        "113211.535000",
        "113212.524000",
        "113213.576000",
        "113214.510000",
        "113215.566000",
        "113216.530000",
        "113217.525000",
        "113218.528000",
        "113219.558000",
        "113220.536000",
        "113221.551000",
        "113222.606000",
        "113223.515000",
        "113224.500000",
        "113225.539000",
        "113226.514000",
        "113227.532000",
        "113228.510000",
        "113229.540000",
        "113230.540000",
        "113231.502000",
        "113232.554000",
        "113233.540000",
        "113234.535000",
        "113235.551000",
        "113236.574000",
        "113237.531000",
        "113238.569000",
        "113239.522000",
        "113240.535000",
        "113241.557000",
        "113242.540000",
        "113243.524000",
        "113244.538000",
        "113245.512000",
        "113246.534000",
        "113247.545000",
        "113248.551000",
        "113249.534000",
        "113250.543000",
        "113251.540000",
        "113252.544000",
        "113253.536000",
        "113254.525000",
        "113255.524000",
        "113256.533000",
        "113257.540000",
        "113258.601000",
        "113259.552000",
        "113300.512000",
        "113301.524000",
        "113302.613000",
        "113303.503000",
        "113304.579000",
        "113305.546000",
        "113306.522000",
        "113307.631000",
        "113308.554000",
        "113309.533000",
        "113310.556000",
        "113311.541000",
        "113312.514000",
        "113313.552000",
        "113314.544000",
        "113315.534000",
        "113316.521000",
        "113317.535000",
        "113318.537000",
        "113319.552000",
        "113320.536000",
        "113321.535000",
        "113322.537000",
