{
  "AcquisitionMatrixPE": 96,
  "AcquisitionNumber": 1,
  "BandwidthPerPixelPhaseEncode": 18.939,
  "BaseResolution": 96,
  "BodyPartExamined": "BRAIN",
  "ConsistencyInfo": "N4_VE11C_LATEST_20160120",
  "ConversionSoftware": "dcm2niix",
  "ConversionSoftwareVersion": "v1.0.20171215 (OpenJPEG build) GCC6.3.0",
  "DerivedVendorReportedEchoSpacing": 0.000550011,
  "DeviceSerialNumber": "66112",
  "DwellTime": 2.2e-06,
  "EchoTime": 0.033,
  "EchoTrainLength": 96,
  "EffectiveEchoSpacing": 0.000550011,
  "FlipAngle": 59,
  "ImageOrientationPatientDICOM": [
    0.999234,
    0.0366571,
    -0.0137073,
    -0.0380374,
    0.992072,
    -0.11978
  ],
  "ImageType": [
    "ORIGINAL",
    "PRIMARY",
    "FMRI",
    "NONE",
    "ND",
    "NORM",
    "MOSAIC"
  ],
  "InPlanePhaseEncodingDirectionDICOM": "COL",
  "InstitutionAddress": "Maynard_3_Hanover_NH_US_03755",
  "InstitutionName": "Dartmouth_College_-_PBS",
  "InstitutionalDepartmentName": "Department",
  "MRAcquisitionType": "2D",
  "MagneticFieldStrength": 3,
  "Manufacturer": "Siemens",
  "ManufacturersModelName": "Prisma",
  "Modality": "MR",
  "MultibandAccelerationFactor": 4,
  "PatientPosition": "HFS",
  "PercentPhaseFOV": 100,
  "PhaseEncodingDirection": "j-",
  "PhaseEncodingSteps": 96,
  "PhaseResolution": 1,
  "PixelBandwidth": 2365,
  "ProcedureStepDescription": "Gobbini_Matteo_1038_hyperface",
  "ProtocolName": "func_run-07_task-visualmemory",
  "PulseSequenceDetails": "%SiemensSeq%_ep2d_bold",
  "ReceiveCoilActiveElements": "HEA;HEP",
  "ReceiveCoilName": "Head_32",
  "ReconMatrixPE": 96,
  "RepetitionTime": 1,
  "SAR": 0.0478777,
  "ScanOptions": "FS",
  "ScanningSequence": "EP",
  "SequenceName": "_epfid2d1_96",
  "SequenceVariant": "SK",
  "SeriesDescription": "func_run-07_task-visualmemory",
  "SeriesNumber": 49,
  "ShimSetting": [
    4151,
    -7684,
    -7283,
    516,
    -30,
    32,
    93,
    109
  ],
  "SliceThickness": 2.5,
  "SliceTiming": [
    0.735,
    0,
    0.49,
    0.0825,
    0.5725,
    0.1625,
    0.6525,
    0.3275,
    0.8175,
    0.4075,
    0.8975,
    0.245,
    0.735,
    0,
    0.49,
    0.0825,
    0.5725,
    0.1625,
    0.6525,
    0.3275,
    0.8175,
    0.4075,
    0.8975,
    0.245,
    0.735,
    0,
    0.49,
    0.0825,
    0.5725,
    0.1625,
    0.6525,
    0.3275,
    0.8175,
    0.4075,
    0.8975,
    0.245,
    0.735,
    0,
    0.49,
    0.0825,
    0.5725,
    0.1625,
    0.6525,
    0.3275,
    0.8175,
    0.4075,
    0.8975,
    0.245
  ],
  "SoftwareVersions": "syngo_MR_E11",
  "SpacingBetweenSlices": 2.5,
  "StationName": "AWP66112",
  "TotalReadoutTime": 0.0522511,
  "TxRefAmp": 240.049,
  "time": {
    "samples": {
      "AcquisitionNumber": [
        1,
        2,
        3,
        4,
        5,
        6,
        7,
        8,
        9,
        10,
        11,
        12,
        13,
        14,
        15,
        16,
        17,
        18,
        19,
        20,
        21,
        22,
        23,
        24,
        25,
        26,
        27,
        28,
        29,
        30,
        31,
        32,
        33,
        34,
        35,
        36,
        37,
        38,
        39,
        40,
        41,
        42,
        43,
        44,
        45,
        46,
        47,
        48,
        49,
        50,
        51,
        52,
        53,
        54,
        55,
        56,
        57,
        58,
        59,
        60,
        61,
        62,
        63,
        64,
        65,
        66,
        67,
        68,
        69,
        70,
        71,
        72,
        73,
        74,
        75,
        76,
        77,
        78,
        79,
        80,
        81,
        82,
        83,
        84,
        85,
        86,
        87,
        88,
        89,
        90,
        91,
        92,
        93,
        94,
        95,
        96,
        97,
        98,
        99,
        100,
        101,
        102,
        103,
        104,
        105,
        106,
        107,
        108,
        109,
        110,
        111,
        112,
        113,
        114,
        115,
        116,
        117,
        118,
        119,
        120,
        121,
        122,
        123,
        124,
        125,
        126,
        127,
        128,
        129,
        130,
        131,
        132,
        133,
        134,
        135,
        136,
        137,
        138,
        139,
        140,
        141,
        142,
        143,
        144,
        145,
        146,
        147,
        148,
        149,
        150,
        151,
        152,
        153,
        154,
        155,
        156,
        157,
        158,
        159,
        160,
        161,
        162,
        163,
        164,
        165,
        166,
        167,
        168,
        169,
        170,
        171,
        172,
        173,
        174,
        175,
        176,
        177,
        178,
        179,
        180,
        181,
        182,
        183,
        184,
        185,
        186,
        187,
        188,
        189,
        190,
        191,
        192,
        193,
        194,
        195,
        196,
        197,
        198,
        199,
        200,
        201,
        202,
        203,
        204,
        205,
        206,
        207,
        208,
        209,
        210,
        211,
        212,
        213,
        214,
        215,
        216,
        217,
        218,
        219,
        220,
        221,
        222,
        223,
        224,
        225,
        226,
        227,
        228,
        229,
        230,
        231,
        232,
        233,
        234,
        235,
        236,
        237,
        238,
        239,
        240,
        241,
        242,
        243,
        244,
        245,
        246,
        247,
        248,
        249,
        250,
        251,
        252,
        253,
        254,
        255,
        256,
        257,
        258,
        259,
        260,
        261,
        262,
        263,
        264,
        265,
        266,
        267,
        268,
        269,
        270,
        271,
        272,
        273,
        274,
        275,
        276,
        277,
        278,
        279,
        280,
        281,
        282,
        283,
        284,
        285,
        286,
        287,
        288
      ],
      "AcquisitionTime": [
        "204007.240000",
        "204008.240000",
        "204009.240000",
        "204010.240000",
        "204011.240000",
        "204012.240000",
        "204013.240000",
        "204014.240000",
        "204015.240000",
        "204016.240000",
        "204017.240000",
        "204018.240000",
        "204019.240000",
        "204020.240000",
        "204021.240000",
        "204022.240000",
        "204023.240000",
        "204024.240000",
        "204025.240000",
        "204026.240000",
        "204027.240000",
        "204028.240000",
        "204029.240000",
        "204030.240000",
        "204031.240000",
        "204032.240000",
        "204033.240000",
        "204034.240000",
        "204035.240000",
        "204036.240000",
        "204037.240000",
        "204038.240000",
        "204039.240000",
        "204040.240000",
        "204041.240000",
        "204042.240000",
        "204043.240000",
        "204044.240000",
        "204045.240000",
        "204046.240000",
        "204047.240000",
        "204048.240000",
        "204049.240000",
        "204050.240000",
        "204051.240000",
        "204052.240000",
        "204053.240000",
        "204054.240000",
        "204055.240000",
        "204056.240000",
        "204057.240000",
        "204058.240000",
        "204059.240000",
        "204100.240000",
        "204101.240000",
        "204102.240000",
        "204103.240000",
        "204104.240000",
        "204105.240000",
        "204106.240000",
        "204107.240000",
        "204108.240000",
        "204109.240000",
        "204110.240000",
        "204111.240000",
        "204112.240000",
        "204113.240000",
        "204114.240000",
        "204115.240000",
        "204116.240000",
        "204117.240000",
        "204118.240000",
        "204119.240000",
        "204120.240000",
        "204121.240000",
        "204122.240000",
        "204123.240000",
        "204124.240000",
        "204125.240000",
        "204126.240000",
        "204127.240000",
        "204128.240000",
        "204129.240000",
        "204130.240000",
        "204131.240000",
        "204132.240000",
        "204133.240000",
        "204134.240000",
        "204135.240000",
        "204136.240000",
        "204137.240000",
        "204138.240000",
        "204139.240000",
        "204140.240000",
        "204141.240000",
        "204142.240000",
        "204143.240000",
        "204144.240000",
        "204145.240000",
        "204146.240000",
        "204147.240000",
        "204148.240000",
        "204149.240000",
        "204150.240000",
        "204151.240000",
        "204152.240000",
        "204153.240000",
        "204154.240000",
        "204155.240000",
        "204156.240000",
        "204157.240000",
        "204158.240000",
        "204159.240000",
        "204200.240000",
        "204201.240000",
        "204202.240000",
        "204203.240000",
        "204204.240000",
        "204205.240000",
        "204206.240000",
        "204207.240000",
        "204208.240000",
        "204209.240000",
        "204210.240000",
        "204211.240000",
        "204212.240000",
        "204213.240000",
        "204214.240000",
        "204215.240000",
        "204216.240000",
        "204217.240000",
        "204218.240000",
        "204219.240000",
        "204220.240000",
        "204221.240000",
        "204222.240000",
        "204223.240000",
        "204224.240000",
        "204225.240000",
        "204226.240000",
        "204227.240000",
        "204228.240000",
        "204229.240000",
        "204230.240000",
        "204231.240000",
        "204232.240000",
        "204233.240000",
        "204234.240000",
        "204235.240000",
        "204236.240000",
        "204237.240000",
        "204238.240000",
        "204239.240000",
        "204240.240000",
        "204241.240000",
        "204242.240000",
        "204243.240000",
        "204244.240000",
        "204245.240000",
        "204246.240000",
        "204247.240000",
        "204248.240000",
        "204249.240000",
        "204250.240000",
        "204251.240000",
        "204252.240000",
        "204253.240000",
        "204254.240000",
        "204255.240000",
        "204256.240000",
        "204257.240000",
        "204258.240000",
        "204259.240000",
        "204300.240000",
        "204301.240000",
        "204302.240000",
        "204303.240000",
        "204304.240000",
        "204305.240000",
        "204306.240000",
        "204307.240000",
        "204308.240000",
        "204309.240000",
        "204310.240000",
        "204311.240000",
        "204312.240000",
        "204313.240000",
        "204314.240000",
        "204315.240000",
        "204316.240000",
        "204317.240000",
        "204318.240000",
        "204319.240000",
        "204320.240000",
        "204321.240000",
        "204322.240000",
        "204323.240000",
        "204324.240000",
        "204325.240000",
        "204326.240000",
        "204327.240000",
        "204328.240000",
        "204329.240000",
        "204330.240000",
        "204331.240000",
        "204332.240000",
        "204333.240000",
        "204334.240000",
        "204335.240000",
        "204336.240000",
        "204337.240000",
        "204338.240000",
        "204339.240000",
        "204340.240000",
        "204341.240000",
        "204342.240000",
        "204343.240000",
        "204344.240000",
        "204345.240000",
        "204346.240000",
        "204347.240000",
        "204348.240000",
        "204349.240000",
        "204350.240000",
        "204351.240000",
        "204352.240000",
        "204353.240000",
        "204354.240000",
        "204355.240000",
        "204356.240000",
        "204357.240000",
        "204358.240000",
        "204359.240000",
        "204400.240000",
        "204401.240000",
        "204402.240000",
        "204403.240000",
        "204404.240000",
        "204405.240000",
        "204406.240000",
        "204407.240000",
        "204408.240000",
        "204409.240000",
        "204410.240000",
        "204411.240000",
        "204412.240000",
        "204413.240000",
        "204414.240000",
        "204415.240000",
        "204416.240000",
        "204417.240000",
        "204418.240000",
        "204419.240000",
        "204420.240000",
        "204421.240000",
        "204422.240000",
        "204423.240000",
        "204424.240000",
        "204425.240000",
        "204426.240000",
        "204427.240000",
        "204428.240000",
        "204429.240000",
        "204430.240000",
        "204431.240000",
        "204432.240000",
        "204433.240000",
        "204434.240000",
        "204435.240000",
        "204436.240000",
        "204437.240000",
        "204438.240000",
        "204439.240000",
        "204440.240000",
        "204441.240000",
        "204442.240000",
        "204443.240000",
        "204444.240000",
        "204445.240000",
        "204446.240000",
        "204447.240000",
        "204448.240000",
        "204449.240000",
        "204450.240000",
        "204451.240000",
        "204452.240000",
        "204453.240000",
        "204454.240000"
      ],
      "ContentTime": [
        "204008.564000",
        "204009.448000",
        "204010.437000",
        "204011.434000",
        "204012.443000",
        "204013.442000",
        "204014.429000",
        "204015.439000",
        "204016.508000",
        "204017.440000",
        "204018.440000",
        "204019.435000",
        "204020.448000",
        "204021.396000",
        "204022.448000",
        "204023.450000",
        "204024.452000",
        "204025.422000",
        "204026.428000",
        "204027.427000",
        "204028.446000",
        "204029.428000",
        "204030.453000",
        "204031.451000",
        "204032.450000",
        "204033.427000",
        "204034.426000",
        "204035.414000",
        "204036.437000",
        "204037.473000",
        "204038.422000",
        "204039.425000",
        "204040.427000",
        "204041.414000",
        "204042.439000",
        "204043.439000",
        "204044.435000",
        "204045.453000",
        "204046.465000",
        "204047.424000",
        "204048.440000",
        "204049.432000",
        "204050.448000",
        "204051.429000",
        "204052.475000",
        "204053.443000",
        "204054.414000",
        "204055.466000",
        "204056.417000",
        "204057.506000",
        "204058.436000",
        "204059.429000",
        "204100.403000",
        "204101.441000",
        "204102.423000",
        "204103.417000",
        "204104.436000",
        "204105.445000",
        "204106.443000",
        "204107.429000",
        "204108.441000",
        "204109.422000",
        "204110.434000",
        "204111.428000",
        "204112.417000",
        "204113.460000",
        "204114.423000",
        "204115.413000",
        "204116.423000",
        "204117.406000",
        "204118.420000",
        "204119.434000",
        "204120.416000",
        "204121.443000",
        "204122.449000",
        "204123.460000",
        "204124.425000",
        "204125.419000",
        "204126.415000",
        "204127.436000",
        "204128.425000",
        "204129.440000",
        "204130.484000",
        "204131.489000",
        "204132.413000",
        "204133.434000",
        "204134.437000",
        "204135.424000",
        "204136.478000",
        "204137.468000",
        "204138.445000",
        "204139.437000",
        "204140.420000",
        "204141.493000",
        "204142.436000",
        "204143.416000",
        "204144.418000",
        "204145.409000",
        "204146.429000",
        "204147.426000",
        "204148.462000",
        "204149.447000",
        "204150.433000",
        "204151.448000",
        "204152.440000",
        "204153.436000",
        "204154.421000",
        "204155.465000",
        "204156.432000",
        "204157.422000",
        "204158.460000",
        "204159.450000",
        "204200.453000",
        "204201.420000",
        "204202.432000",
        "204203.460000",
        "204204.439000",
        "204205.457000",
        "204206.458000",
        "204207.419000",
        "204208.434000",
        "204209.424000",
        "204210.470000",
        "204211.452000",
        "204212.445000",
        "204213.434000",
        "204214.436000",
        "204215.479000",
        "204216.450000",
        "204217.443000",
        "204218.439000",
        "204219.480000",
        "204220.436000",
        "204221.464000",
        "204222.433000",
        "204223.451000",
        "204224.451000",
        "204225.446000",
        "204226.452000",
        "204227.475000",
        "204228.454000",
        "204229.410000",
        "204230.439000",
        "204231.432000",
        "204232.447000",
        "204233.416000",
        "204234.457000",
        "204235.435000",
        "204236.425000",
        "204237.438000",
        "204238.406000",
        "204239.431000",
        "204240.449000",
        "204241.414000",
        "204242.447000",
        "204243.445000",
        "204244.414000",
        "204245.430000",
        "204246.472000",
        "204247.429000",
        "204248.423000",
        "204249.452000",
        "204250.413000",
        "204251.425000",
        "204252.475000",
        "204253.419000",
        "204254.426000",
        "204255.440000",
        "204256.444000",
        "204257.444000",
        "204258.416000",
        "204259.437000",
        "204300.450000",
        "204301.424000",
        "204302.520000",
        "204303.464000",
        "204304.447000",
        "204305.426000",
        "204306.440000",
        "204307.439000",
        "204308.427000",
        "204309.447000",
        "204310.382000",
        "204311.437000",
        "204312.438000",
        "204313.438000",
        "204314.431000",
        "204315.425000",
        "204316.441000",
        "204317.419000",
        "204318.426000",
        "204319.425000",
        "204320.426000",
        "204321.460000",
        "204322.445000",
        "204323.425000",
        "204324.424000",
        "204325.477000",
        "204326.410000",
        "204327.423000",
        "204328.402000",
        "204329.463000",
        "204330.439000",
        "204331.425000",
        "204332.443000",
        "204333.495000",
        "204334.428000",
        "204335.491000",
        "204336.427000",
        "204337.485000",
        "204338.428000",
        "204339.428000",
        "204340.491000",
        "204341.466000",
        "204342.510000",
        "204343.432000",
        "204344.447000",
        "204345.418000",
        "204346.418000",
        "204347.445000",
        "204348.417000",
        "204349.463000",
        "204350.443000",
        "204351.438000",
        "204352.450000",
        "204353.456000",
        "204354.433000",
        "204355.429000",
        "204356.420000",
        "204357.460000",
        "204358.427000",
        "204359.439000",
        "204400.407000",
        "204401.448000",
        "204402.459000",
        "204403.445000",
        "204404.428000",
        "204405.459000",
        "204406.434000",
        "204407.459000",
        "204408.456000",
        "204409.412000",
        "204410.434000",
        "204411.436000",
        "204412.445000",
        "204413.452000",
        "204414.437000",
        "204415.430000",
        "204416.428000",
        "204417.474000",
        "204418.451000",
        "204419.512000",
        "204420.430000",
        "204421.441000",
        "204422.400000",
        "204423.423000",
        "204424.437000",
        "204425.390000",
        "204426.451000",
        "204427.439000",
        "204428.423000",
        "204429.439000",
        "204430.446000",
        "204431.426000",
        "204432.448000",
        "204433.427000",
        "204434.470000",
        "204435.416000",
        "204436.435000",
        "204437.427000",
        "204438.449000",
        "204439.436000",
        "204440.456000",
        "204441.422000",
        "204442.446000",
        "204443.444000",
        "204444.428000",
        "204445.448000",
        "204446.446000",
        "204447.445000",
        "204448.432000",
        "204449.432000",
        "204450.460000",
        "204451.404000",
        "204452.479000",
        "204453.428000",
        "204454.438000",
        "204455.446000"
      ],
      "InstanceCreationTime": [
        "204008.564000",
        "204009.448000",
        "204010.437000",
        "204011.434000",
        "204012.443000",
        "204013.442000",
        "204014.429000",
        "204015.439000",
        "204016.508000",
        "204017.440000",
        "204018.440000",
        "204019.435000",
        "204020.448000",
        "204021.396000",
        "204022.448000",
        "204023.450000",
        "204024.452000",
        "204025.422000",
        "204026.428000",
        "204027.427000",
        "204028.446000",
        "204029.428000",
        "204030.453000",
        "204031.451000",
        "204032.450000",
        "204033.427000",
        "204034.426000",
        "204035.414000",
        "204036.437000",
        "204037.473000",
        "204038.422000",
        "204039.425000",
        "204040.427000",
        "204041.414000",
        "204042.439000",
        "204043.439000",
        "204044.435000",
        "204045.453000",
        "204046.465000",
        "204047.424000",
        "204048.440000",
        "204049.432000",
        "204050.448000",
        "204051.429000",
        "204052.475000",
        "204053.443000",
        "204054.414000",
        "204055.466000",
        "204056.417000",
        "204057.506000",
        "204058.436000",
        "204059.429000",
        "204100.403000",
        "204101.441000",
        "204102.423000",
        "204103.417000",
        "204104.436000",
        "204105.445000",
        "204106.443000",
        "204107.429000",
        "204108.441000",
        "204109.422000",
        "204110.434000",
        "204111.428000",
        "204112.417000",
        "204113.460000",
        "204114.423000",
        "204115.413000",
        "204116.423000",
        "204117.406000",
        "204118.420000",
        "204119.434000",
        "204120.416000",
        "204121.443000",
        "204122.449000",
        "204123.460000",
        "204124.425000",
        "204125.419000",
        "204126.415000",
        "204127.436000",
        "204128.425000",
        "204129.440000",
        "204130.484000",
        "204131.489000",
        "204132.413000",
        "204133.434000",
        "204134.437000",
        "204135.424000",
        "204136.478000",
        "204137.468000",
        "204138.445000",
        "204139.437000",
        "204140.420000",
        "204141.493000",
        "204142.436000",
        "204143.416000",
        "204144.418000",
        "204145.409000",
        "204146.429000",
        "204147.426000",
        "204148.462000",
        "204149.447000",
        "204150.433000",
        "204151.448000",
        "204152.440000",
        "204153.436000",
        "204154.421000",
        "204155.465000",
        "204156.432000",
        "204157.422000",
        "204158.460000",
        "204159.450000",
        "204200.453000",
        "204201.420000",
        "204202.432000",
        "204203.460000",
        "204204.439000",
        "204205.457000",
        "204206.458000",
        "204207.419000",
        "204208.434000",
        "204209.424000",
        "204210.470000",
        "204211.452000",
        "204212.445000",
        "204213.434000",
        "204214.436000",
        "204215.479000",
        "204216.450000",
        "204217.443000",
        "204218.439000",
        "204219.480000",
        "204220.436000",
        "204221.464000",
        "204222.433000",
        "204223.451000",
        "204224.451000",
        "204225.446000",
        "204226.452000",
        "204227.475000",
        "204228.454000",
        "204229.410000",
        "204230.439000",
        "204231.432000",
        "204232.447000",
        "204233.416000",
        "204234.457000",
        "204235.435000",
        "204236.425000",
        "204237.438000",
        "204238.406000",
        "204239.431000",
        "204240.449000",
        "204241.414000",
        "204242.447000",
        "204243.445000",
        "204244.414000",
        "204245.430000",
        "204246.472000",
        "204247.429000",
        "204248.423000",
        "204249.452000",
        "204250.413000",
        "204251.425000",
        "204252.475000",
        "204253.419000",
        "204254.426000",
        "204255.440000",
        "204256.444000",
        "204257.444000",
        "204258.416000",
        "204259.437000",
        "204300.450000",
        "204301.424000",
        "204302.520000",
        "204303.464000",
        "204304.447000",
        "204305.426000",
        "204306.440000",
        "204307.439000",
        "204308.427000",
        "204309.447000",
        "204310.382000",
        "204311.437000",
        "204312.438000",
        "204313.438000",
        "204314.431000",
        "204315.425000",
        "204316.441000",
        "204317.419000",
        "204318.426000",
        "204319.425000",
        "204320.426000",
        "204321.460000",
        "204322.445000",
        "204323.425000",
        "204324.424000",
        "204325.477000",
        "204326.410000",
        "204327.423000",
        "204328.402000",
        "204329.463000",
        "204330.439000",
        "204331.425000",
        "204332.443000",
        "204333.495000",
        "204334.428000",
        "204335.491000",
        "204336.427000",
        "204337.485000",
        "204338.428000",
        "204339.428000",
        "204340.491000",
        "204341.466000",
        "204342.510000",
        "204343.432000",
        "204344.447000",
        "204345.418000",
        "204346.418000",
        "204347.445000",
        "204348.417000",
        "204349.463000",
        "204350.443000",
        "204351.438000",
        "204352.450000",
        "204353.456000",
        "204354.433000",
        "204355.429000",
        "204356.420000",
        "204357.460000",
        "204358.427000",
        "204359.439000",
        "204400.407000",
        "204401.448000",
        "204402.459000",
        "204403.445000",
        "204404.428000",
        "204405.459000",
        "204406.434000",
        "204407.459000",
        "204408.456000",
        "204409.412000",
        "204410.434000",
        "204411.436000",
        "204412.445000",
        "204413.452000",
        "204414.437000",
        "204415.430000",
        "204416.428000",
        "204417.474000",
        "204418.451000",
        "204419.512000",
        "204420.430000",
        "204421.441000",
        "204422.400000",
        "204423.423000",
        "204424.437000",
        "204425.390000",
        "204426.451000",
        "204427.439000",
        "204428.423000",
        "204429.439000",
        "204430.446000",
        "204431.426000",
        "204432.448000",
        "204433.427000",
        "204434.470000",
        "204435.416000",
        "204436.435000",
        "204437.427000",
        "204438.449000",
        "204439.436000",
        "204440.456000",
        "204441.422000",
        "204442.446000",
        "204443.444000",
        "204444.428000",
        "204445.448000",
        "204446.446000",
        "204447.445000",
        "204448.432000",
        "204449.432000",
        "204450.460000",
        "204451.404000",
        "204452.479000",
        "204453.428000",
        "204454.438000",
        "204455.446000"
      ],
      "InstanceNumber": [
        1,
        2,
        3,
        4,
        5,
        6,
        7,
        8,
        9,
        10,
        11,
        12,
        13,
        14,
        15,
        16,
        17,
        18,
        19,
        20,
        21,
        22,
        23,
        24,
        25,
        26,
        27,
        28,
        29,
        30,
        31,
        32,
        33,
        34,
        35,
        36,
        37,
        38,
        39,
        40,
        41,
        42,
        43,
        44,
        45,
        46,
        47,
        48,
        49,
        50,
        51,
        52,
        53,
        54,
        55,
        56,
        57,
        58,
        59,
        60,
        61,
        62,
        63,
        64,
        65,
        66,
        67,
        68,
        69,
        70,
        71,
        72,
        73,
        74,
        75,
        76,
        77,
        78,
        79,
        80,
        81,
        82,
        83,
        84,
        85,
        86,
        87,
        88,
        89,
        90,
        91,
        92,
        93,
        94,
        95,
        96,
        97,
        98,
        99,
        100,
        101,
        102,
        103,
        104,
        105,
        106,
        107,
        108,
        109,
        110,
        111,
        112,
        113,
        114,
        115,
        116,
        117,
        118,
        119,
        120,
        121,
        122,
        123,
        124,
        125,
        126,
        127,
        128,
        129,
        130,
        131,
        132,
        133,
        134,
        135,
        136,
        137,
        138,
        139,
        140,
        141,
        142,
        143,
        144,
        145,
        146,
        147,
        148,
        149,
        150,
        151,
        152,
        153,
        154,
        155,
