{
  "AcquisitionMatrixPE": 96,
  "AcquisitionNumber": 1,
  "BandwidthPerPixelPhaseEncode": 18.939,
  "BaseResolution": 96,
  "BodyPartExamined": "BRAIN",
  "ConsistencyInfo": "N4_VE11C_LATEST_20160120",
  "ConversionSoftware": "dcm2niix",
  "ConversionSoftwareVersion": "v1.0.20171215 (OpenJPEG build) GCC6.3.0",
  "DerivedVendorReportedEchoSpacing": 0.000550011,
  "DeviceSerialNumber": "66112",
  "DwellTime": 2.2e-06,
  "EchoTime": 0.033,
  "EchoTrainLength": 96,
  "EffectiveEchoSpacing": 0.000550011,
  "FlipAngle": 59,
  "ImageOrientationPatientDICOM": [
    0.999234,
    0.0366571,
    -0.0137073,
    -0.0380374,
    0.992072,
    -0.11978
  ],
  "ImageType": [
    "ORIGINAL",
    "PRIMARY",
    "FMRI",
    "NONE",
    "ND",
    "NORM",
    "MOSAIC"
  ],
  "InPlanePhaseEncodingDirectionDICOM": "COL",
  "InstitutionAddress": "Maynard_3_Hanover_NH_US_03755",
  "InstitutionName": "Dartmouth_College_-_PBS",
  "InstitutionalDepartmentName": "Department",
  "MRAcquisitionType": "2D",
  "MagneticFieldStrength": 3,
  "Manufacturer": "Siemens",
  "ManufacturersModelName": "Prisma",
  "Modality": "MR",
  "MultibandAccelerationFactor": 4,
  "PatientPosition": "HFS",
  "PercentPhaseFOV": 100,
  "PhaseEncodingDirection": "j-",
  "PhaseEncodingSteps": 96,
  "PhaseResolution": 1,
  "PixelBandwidth": 2365,
  "ProcedureStepDescription": "Gobbini_Matteo_1038_hyperface",
  "ProtocolName": "func_run-03_task-visualmemory",
  "PulseSequenceDetails": "%SiemensSeq%_ep2d_bold",
  "ReceiveCoilActiveElements": "HEA;HEP",
  "ReceiveCoilName": "Head_32",
  "ReconMatrixPE": 96,
  "RepetitionTime": 1,
  "SAR": 0.0478777,
  "ScanOptions": "FS",
  "ScanningSequence": "EP",
  "SequenceName": "_epfid2d1_96",
  "SequenceVariant": "SK",
  "SeriesDescription": "func_run-03_task-visualmemory",
  "SeriesNumber": 21,
  "ShimSetting": [
    4151,
    -7684,
    -7283,
    516,
    -30,
    32,
    93,
    109
  ],
  "SliceThickness": 2.5,
  "SliceTiming": [
    0.735,
    0,
    0.49,
    0.0825,
    0.5725,
    0.1625,
    0.6525,
    0.3275,
    0.8175,
    0.4075,
    0.8975,
    0.245,
    0.735,
    0,
    0.49,
    0.0825,
    0.5725,
    0.1625,
    0.6525,
    0.3275,
    0.8175,
    0.4075,
    0.8975,
    0.245,
    0.735,
    0,
    0.49,
    0.0825,
    0.5725,
    0.1625,
    0.6525,
    0.3275,
    0.8175,
    0.4075,
    0.8975,
    0.245,
    0.735,
    0,
    0.49,
    0.0825,
    0.5725,
    0.1625,
    0.6525,
    0.3275,
    0.8175,
    0.4075,
    0.8975,
    0.245
  ],
  "SoftwareVersions": "syngo_MR_E11",
  "SpacingBetweenSlices": 2.5,
  "StationName": "AWP66112",
  "TotalReadoutTime": 0.0522511,
  "TxRefAmp": 240.049,
  "time": {
    "samples": {
      "AcquisitionNumber": [
        1,
        2,
        3,
        4,
        5,
        6,
        7,
        8,
        9,
        10,
        11,
        12,
        13,
        14,
        15,
        16,
        17,
        18,
        19,
        20,
        21,
        22,
        23,
        24,
        25,
        26,
        27,
        28,
        29,
        30,
        31,
        32,
        33,
        34,
        35,
        36,
        37,
        38,
        39,
        40,
        41,
        42,
        43,
        44,
        45,
        46,
        47,
        48,
        49,
        50,
        51,
        52,
        53,
        54,
        55,
        56,
        57,
        58,
        59,
        60,
        61,
        62,
        63,
        64,
        65,
        66,
        67,
        68,
        69,
        70,
        71,
        72,
        73,
        74,
        75,
        76,
        77,
        78,
        79,
        80,
        81,
        82,
        83,
        84,
        85,
        86,
        87,
        88,
        89,
        90,
        91,
        92,
        93,
        94,
        95,
        96,
        97,
        98,
        99,
        100,
        101,
        102,
        103,
        104,
        105,
        106,
        107,
        108,
        109,
        110,
        111,
        112,
        113,
        114,
        115,
        116,
        117,
        118,
        119,
        120,
        121,
        122,
        123,
        124,
        125,
        126,
        127,
        128,
        129,
        130,
        131,
        132,
        133,
        134,
        135,
        136,
        137,
        138,
        139,
        140,
        141,
        142,
        143,
        144,
        145,
        146,
        147,
        148,
        149,
        150,
        151,
        152,
        153,
        154,
        155,
        156,
        157,
        158,
        159,
        160,
        161,
        162,
        163,
        164,
        165,
        166,
        167,
        168,
        169,
        170,
        171,
        172,
        173,
        174,
        175,
        176,
        177,
        178,
        179,
        180,
        181,
        182,
        183,
        184,
        185,
        186,
        187,
        188,
        189,
        190,
        191,
        192,
        193,
        194,
        195,
        196,
        197,
        198,
        199,
        200,
        201,
        202,
        203,
        204,
        205,
        206,
        207,
        208,
        209,
        210,
        211,
        212,
        213,
        214,
        215,
        216,
        217,
        218,
        219,
        220,
        221,
        222,
        223,
        224,
        225,
        226,
        227,
        228,
        229,
        230,
        231,
        232,
        233,
        234,
        235,
        236,
        237,
        238,
        239,
        240,
        241,
        242,
        243,
        244,
        245,
        246,
        247,
        248,
        249,
        250,
        251,
        252,
        253,
        254,
        255,
        256,
        257,
        258,
        259,
        260,
        261,
        262,
        263,
        264,
        265,
        266,
        267,
        268,
        269,
        270,
        271,
        272,
        273,
        274,
        275,
        276,
        277,
        278,
        279,
        280,
        281,
        282,
        283,
        284,
        285,
        286,
        287,
        288
      ],
      "AcquisitionTime": [
        "201836.390000",
        "201837.390000",
        "201838.390000",
        "201839.390000",
        "201840.390000",
        "201841.390000",
        "201842.390000",
        "201843.390000",
        "201844.390000",
        "201845.390000",
        "201846.390000",
        "201847.390000",
        "201848.390000",
        "201849.390000",
        "201850.390000",
        "201851.390000",
        "201852.390000",
        "201853.390000",
        "201854.390000",
        "201855.390000",
        "201856.390000",
        "201857.390000",
        "201858.390000",
        "201859.390000",
        "201900.390000",
        "201901.390000",
        "201902.390000",
        "201903.390000",
        "201904.390000",
        "201905.390000",
        "201906.390000",
        "201907.390000",
        "201908.390000",
        "201909.390000",
        "201910.390000",
        "201911.390000",
        "201912.390000",
        "201913.390000",
        "201914.390000",
        "201915.390000",
        "201916.390000",
        "201917.390000",
        "201918.390000",
        "201919.390000",
        "201920.390000",
        "201921.390000",
        "201922.390000",
        "201923.390000",
        "201924.390000",
        "201925.390000",
        "201926.390000",
        "201927.390000",
        "201928.390000",
        "201929.390000",
        "201930.390000",
        "201931.390000",
        "201932.390000",
        "201933.390000",
        "201934.390000",
        "201935.390000",
        "201936.390000",
        "201937.390000",
        "201938.390000",
        "201939.390000",
        "201940.390000",
        "201941.390000",
        "201942.390000",
        "201943.390000",
        "201944.390000",
        "201945.390000",
        "201946.390000",
        "201947.390000",
        "201948.390000",
        "201949.390000",
        "201950.390000",
        "201951.390000",
        "201952.390000",
        "201953.390000",
        "201954.390000",
        "201955.390000",
        "201956.390000",
        "201957.390000",
        "201958.390000",
        "201959.390000",
        "202000.390000",
        "202001.390000",
        "202002.390000",
        "202003.390000",
        "202004.390000",
        "202005.390000",
        "202006.390000",
        "202007.390000",
        "202008.390000",
        "202009.390000",
        "202010.390000",
        "202011.390000",
        "202012.390000",
        "202013.390000",
        "202014.390000",
        "202015.390000",
        "202016.390000",
        "202017.390000",
        "202018.390000",
        "202019.390000",
        "202020.390000",
        "202021.390000",
        "202022.390000",
        "202023.390000",
        "202024.390000",
        "202025.390000",
        "202026.390000",
        "202027.390000",
        "202028.390000",
        "202029.390000",
        "202030.390000",
        "202031.390000",
        "202032.390000",
        "202033.390000",
        "202034.390000",
        "202035.390000",
        "202036.390000",
        "202037.390000",
        "202038.390000",
        "202039.390000",
        "202040.390000",
        "202041.390000",
        "202042.390000",
        "202043.390000",
        "202044.390000",
        "202045.390000",
        "202046.390000",
        "202047.390000",
        "202048.390000",
        "202049.390000",
        "202050.390000",
        "202051.390000",
        "202052.390000",
        "202053.390000",
        "202054.390000",
        "202055.390000",
        "202056.390000",
        "202057.390000",
        "202058.390000",
        "202059.390000",
        "202100.390000",
        "202101.390000",
        "202102.390000",
        "202103.390000",
        "202104.390000",
        "202105.390000",
        "202106.390000",
        "202107.390000",
        "202108.390000",
        "202109.390000",
        "202110.390000",
        "202111.390000",
        "202112.390000",
        "202113.390000",
        "202114.390000",
        "202115.390000",
        "202116.390000",
        "202117.390000",
        "202118.390000",
        "202119.390000",
        "202120.390000",
        "202121.390000",
        "202122.390000",
        "202123.390000",
        "202124.390000",
        "202125.390000",
        "202126.390000",
        "202127.390000",
        "202128.390000",
        "202129.390000",
        "202130.390000",
        "202131.390000",
        "202132.390000",
        "202133.390000",
        "202134.390000",
        "202135.390000",
        "202136.390000",
        "202137.390000",
        "202138.390000",
        "202139.390000",
        "202140.390000",
        "202141.390000",
        "202142.390000",
        "202143.390000",
        "202144.390000",
        "202145.390000",
        "202146.390000",
        "202147.390000",
        "202148.390000",
        "202149.390000",
        "202150.390000",
        "202151.390000",
        "202152.390000",
        "202153.390000",
        "202154.390000",
        "202155.390000",
        "202156.390000",
        "202157.390000",
        "202158.390000",
        "202159.390000",
        "202200.390000",
        "202201.390000",
        "202202.390000",
        "202203.390000",
        "202204.390000",
        "202205.390000",
        "202206.390000",
        "202207.390000",
        "202208.390000",
        "202209.390000",
        "202210.390000",
        "202211.390000",
        "202212.390000",
        "202213.390000",
        "202214.390000",
        "202215.390000",
        "202216.390000",
        "202217.390000",
        "202218.390000",
        "202219.390000",
        "202220.390000",
        "202221.390000",
        "202222.390000",
        "202223.390000",
        "202224.390000",
        "202225.390000",
        "202226.390000",
        "202227.390000",
        "202228.390000",
        "202229.390000",
        "202230.390000",
        "202231.390000",
        "202232.390000",
        "202233.390000",
        "202234.390000",
        "202235.390000",
        "202236.390000",
        "202237.390000",
        "202238.390000",
        "202239.390000",
        "202240.390000",
        "202241.390000",
        "202242.390000",
        "202243.390000",
        "202244.390000",
        "202245.390000",
        "202246.390000",
        "202247.390000",
        "202248.390000",
        "202249.390000",
        "202250.390000",
        "202251.390000",
        "202252.390000",
        "202253.390000",
        "202254.390000",
        "202255.390000",
        "202256.390000",
        "202257.390000",
        "202258.390000",
        "202259.390000",
        "202300.390000",
        "202301.390000",
        "202302.390000",
        "202303.390000",
        "202304.390000",
        "202305.390000",
        "202306.390000",
        "202307.390000",
        "202308.390000",
        "202309.390000",
        "202310.390000",
        "202311.390000",
        "202312.390000",
        "202313.390000",
        "202314.390000",
        "202315.390000",
        "202316.390000",
        "202317.390000",
        "202318.390000",
        "202319.390000",
        "202320.390000",
        "202321.390000",
        "202322.390000",
        "202323.390000"
      ],
      "ContentTime": [
        "201837.981000",
        "201838.847000",
        "201839.808000",
        "201840.824000",
        "201841.807000",
        "201842.797000",
        "201843.800000",
        "201844.820000",
        "201845.799000",
        "201846.824000",
        "201847.799000",
        "201848.815000",
        "201849.811000",
        "201850.814000",
        "201851.796000",
        "201852.813000",
        "201853.805000",
        "201854.814000",
        "201855.816000",
        "201856.813000",
        "201857.812000",
        "201858.812000",
        "201859.811000",
        "201900.831000",
        "201901.814000",
        "201902.815000",
        "201903.786000",
        "201904.813000",
        "201905.804000",
        "201906.829000",
        "201907.818000",
        "201908.796000",
        "201909.804000",
        "201910.815000",
        "201911.803000",
        "201912.820000",
        "201913.825000",
        "201914.808000",
        "201915.844000",
        "201916.808000",
        "201917.818000",
        "201918.811000",
        "201919.812000",
        "201920.790000",
        "201921.808000",
        "201922.812000",
        "201923.801000",
        "201924.796000",
        "201925.844000",
        "201926.815000",
        "201927.806000",
        "201928.824000",
        "201929.784000",
        "201930.848000",
        "201931.798000",
        "201932.806000",
        "201933.826000",
        "201934.793000",
        "201935.813000",
        "201936.810000",
        "201937.789000",
        "201938.774000",
        "201939.868000",
        "201940.810000",
        "201941.795000",
        "201942.808000",
        "201943.791000",
        "201944.840000",
        "201945.794000",
        "201946.837000",
        "201947.812000",
        "201948.806000",
        "201949.823000",
        "201950.844000",
        "201951.800000",
        "201952.878000",
        "201953.795000",
        "201954.837000",
        "201955.814000",
        "201956.812000",
        "201957.807000",
        "201958.822000",
        "201959.812000",
        "202000.827000",
        "202001.810000",
        "202002.827000",
        "202003.799000",
        "202004.817000",
        "202005.842000",
        "202006.828000",
        "202007.812000",
        "202008.831000",
        "202009.798000",
        "202010.806000",
        "202011.766000",
        "202012.839000",
        "202013.801000",
        "202014.825000",
        "202015.876000",
        "202016.819000",
        "202017.785000",
        "202018.809000",
        "202019.807000",
        "202020.806000",
        "202021.839000",
        "202022.872000",
        "202023.808000",
        "202024.807000",
        "202025.810000",
        "202026.812000",
        "202027.822000",
        "202028.804000",
        "202029.809000",
        "202030.811000",
        "202031.802000",
        "202032.825000",
        "202033.810000",
        "202034.803000",
        "202035.850000",
        "202036.870000",
        "202037.812000",
        "202038.848000",
        "202039.794000",
        "202040.815000",
        "202041.889000",
        "202042.822000",
        "202043.807000",
        "202044.818000",
        "202045.813000",
        "202046.813000",
        "202047.836000",
        "202048.803000",
        "202049.782000",
        "202050.815000",
        "202051.807000",
        "202052.774000",
        "202053.840000",
        "202054.782000",
        "202055.814000",
        "202056.815000",
        "202057.816000",
        "202058.831000",
        "202059.821000",
        "202100.809000",
        "202101.838000",
        "202102.828000",
        "202103.801000",
        "202104.811000",
        "202105.854000",
        "202106.825000",
        "202107.838000",
        "202108.838000",
        "202109.805000",
        "202110.833000",
        "202111.771000",
        "202112.845000",
        "202113.812000",
        "202114.800000",
        "202115.827000",
        "202116.820000",
        "202117.809000",
        "202118.818000",
        "202119.809000",
        "202120.829000",
        "202121.817000",
        "202122.823000",
        "202123.833000",
        "202124.793000",
        "202125.823000",
        "202126.801000",
        "202127.824000",
        "202128.853000",
        "202129.875000",
        "202130.787000",
        "202131.848000",
        "202132.828000",
        "202133.817000",
        "202134.881000",
        "202135.830000",
        "202136.813000",
        "202137.804000",
        "202138.817000",
        "202139.808000",
        "202140.825000",
        "202141.815000",
        "202142.825000",
        "202143.831000",
        "202144.809000",
        "202145.805000",
        "202146.831000",
        "202147.794000",
        "202148.827000",
        "202149.821000",
        "202150.806000",
        "202151.789000",
        "202152.798000",
        "202153.800000",
        "202154.832000",
        "202155.812000",
        "202156.830000",
        "202157.789000",
        "202158.812000",
        "202159.877000",
        "202200.809000",
        "202201.796000",
        "202202.794000",
        "202203.809000",
        "202204.810000",
        "202205.796000",
        "202206.804000",
        "202207.810000",
        "202208.821000",
        "202209.789000",
        "202210.819000",
        "202211.810000",
        "202212.808000",
        "202213.835000",
        "202214.841000",
        "202215.817000",
        "202216.882000",
        "202217.826000",
        "202218.804000",
        "202219.819000",
        "202220.810000",
        "202221.809000",
        "202222.807000",
        "202223.805000",
        "202224.802000",
        "202225.780000",
        "202226.768000",
        "202227.777000",
        "202228.819000",
        "202229.808000",
        "202230.857000",
        "202231.827000",
        "202232.825000",
        "202233.775000",
        "202234.864000",
        "202235.815000",
        "202236.850000",
        "202237.836000",
        "202238.812000",
        "202239.827000",
        "202240.813000",
        "202241.822000",
        "202242.799000",
        "202243.835000",
        "202244.806000",
        "202245.816000",
        "202246.798000",
        "202247.807000",
        "202248.811000",
        "202249.827000",
        "202250.838000",
        "202251.837000",
        "202252.851000",
        "202253.815000",
        "202254.810000",
        "202255.787000",
        "202256.849000",
        "202257.824000",
        "202258.814000",
        "202259.760000",
        "202300.813000",
        "202301.798000",
        "202302.798000",
        "202303.831000",
        "202304.824000",
        "202305.814000",
        "202306.830000",
        "202307.793000",
        "202308.806000",
        "202309.834000",
        "202310.813000",
        "202311.818000",
        "202312.834000",
        "202313.829000",
        "202314.833000",
        "202315.823000",
        "202316.826000",
        "202317.808000",
        "202318.810000",
        "202319.823000",
        "202320.809000",
        "202321.808000",
        "202322.806000",
        "202323.812000",
        "202324.855000"
      ],
      "InstanceCreationTime": [
        "201837.981000",
        "201838.847000",
        "201839.808000",
        "201840.824000",
        "201841.807000",
        "201842.797000",
        "201843.800000",
        "201844.820000",
        "201845.799000",
        "201846.824000",
        "201847.799000",
        "201848.815000",
        "201849.811000",
        "201850.814000",
        "201851.796000",
        "201852.813000",
        "201853.805000",
        "201854.814000",
        "201855.816000",
        "201856.813000",
        "201857.812000",
        "201858.812000",
        "201859.811000",
        "201900.831000",
        "201901.814000",
        "201902.815000",
        "201903.786000",
        "201904.813000",
        "201905.804000",
        "201906.829000",
        "201907.818000",
        "201908.796000",
        "201909.804000",
        "201910.815000",
        "201911.803000",
        "201912.820000",
        "201913.825000",
        "201914.808000",
        "201915.844000",
        "201916.808000",
        "201917.818000",
        "201918.811000",
        "201919.812000",
        "201920.790000",
        "201921.808000",
        "201922.812000",
        "201923.801000",
        "201924.796000",
        "201925.844000",
        "201926.815000",
        "201927.806000",
        "201928.824000",
        "201929.784000",
        "201930.848000",
        "201931.798000",
        "201932.806000",
        "201933.826000",
        "201934.793000",
        "201935.813000",
        "201936.810000",
        "201937.789000",
        "201938.774000",
        "201939.868000",
        "201940.810000",
        "201941.795000",
        "201942.808000",
        "201943.791000",
        "201944.840000",
        "201945.794000",
        "201946.837000",
        "201947.812000",
        "201948.806000",
        "201949.823000",
        "201950.844000",
        "201951.800000",
        "201952.878000",
        "201953.795000",
        "201954.837000",
        "201955.814000",
        "201956.812000",
        "201957.807000",
        "201958.822000",
        "201959.812000",
        "202000.827000",
        "202001.810000",
        "202002.827000",
        "202003.799000",
        "202004.817000",
        "202005.842000",
        "202006.828000",
        "202007.812000",
        "202008.831000",
        "202009.798000",
        "202010.806000",
        "202011.766000",
        "202012.839000",
        "202013.801000",
        "202014.825000",
        "202015.876000",
        "202016.819000",
        "202017.785000",
        "202018.809000",
        "202019.807000",
        "202020.806000",
        "202021.839000",
        "202022.872000",
        "202023.808000",
        "202024.807000",
        "202025.810000",
        "202026.812000",
        "202027.822000",
        "202028.804000",
        "202029.809000",
        "202030.811000",
        "202031.802000",
        "202032.825000",
        "202033.810000",
        "202034.803000",
        "202035.850000",
        "202036.870000",
        "202037.812000",
        "202038.848000",
        "202039.794000",
        "202040.815000",
        "202041.889000",
        "202042.822000",
        "202043.807000",
        "202044.818000",
        "202045.813000",
        "202046.813000",
        "202047.836000",
        "202048.803000",
        "202049.782000",
        "202050.815000",
        "202051.807000",
        "202052.774000",
        "202053.840000",
        "202054.782000",
        "202055.814000",
        "202056.815000",
        "202057.816000",
        "202058.831000",
        "202059.821000",
        "202100.809000",
        "202101.838000",
        "202102.828000",
        "202103.801000",
        "202104.811000",
        "202105.854000",
        "202106.825000",
        "202107.838000",
        "202108.838000",
        "202109.805000",
        "202110.833000",
        "202111.771000",
        "202112.845000",
        "202113.812000",
        "202114.800000",
        "202115.827000",
        "202116.820000",
        "202117.809000",
        "202118.818000",
        "202119.809000",
        "202120.829000",
        "202121.817000",
        "202122.823000",
        "202123.833000",
        "202124.793000",
        "202125.823000",
        "202126.801000",
        "202127.824000",
        "202128.853000",
        "202129.875000",
        "202130.787000",
        "202131.848000",
        "202132.828000",
        "202133.817000",
        "202134.881000",
        "202135.830000",
        "202136.813000",
        "202137.804000",
        "202138.817000",
        "202139.808000",
        "202140.825000",
        "202141.815000",
        "202142.825000",
        "202143.831000",
        "202144.809000",
        "202145.805000",
        "202146.831000",
        "202147.794000",
        "202148.827000",
        "202149.821000",
        "202150.806000",
        "202151.789000",
        "202152.798000",
        "202153.800000",
        "202154.832000",
        "202155.812000",
        "202156.830000",
        "202157.789000",
        "202158.812000",
        "202159.877000",
        "202200.809000",
        "202201.796000",
        "202202.794000",
        "202203.809000",
        "202204.810000",
        "202205.796000",
        "202206.804000",
        "202207.810000",
        "202208.821000",
        "202209.789000",
        "202210.819000",
        "202211.810000",
        "202212.808000",
        "202213.835000",
        "202214.841000",
        "202215.817000",
        "202216.882000",
        "202217.826000",
        "202218.804000",
        "202219.819000",
        "202220.810000",
        "202221.809000",
        "202222.807000",
        "202223.805000",
        "202224.802000",
        "202225.780000",
        "202226.768000",
        "202227.777000",
        "202228.819000",
        "202229.808000",
        "202230.857000",
        "202231.827000",
        "202232.825000",
        "202233.775000",
        "202234.864000",
        "202235.815000",
        "202236.850000",
        "202237.836000",
        "202238.812000",
        "202239.827000",
        "202240.813000",
        "202241.822000",
        "202242.799000",
        "202243.835000",
        "202244.806000",
        "202245.816000",
        "202246.798000",
        "202247.807000",
        "202248.811000",
        "202249.827000",
        "202250.838000",
        "202251.837000",
        "202252.851000",
        "202253.815000",
        "202254.810000",
        "202255.787000",
        "202256.849000",
        "202257.824000",
        "202258.814000",
        "202259.760000",
        "202300.813000",
        "202301.798000",
        "202302.798000",
        "202303.831000",
        "202304.824000",
        "202305.814000",
        "202306.830000",
        "202307.793000",
        "202308.806000",
        "202309.834000",
        "202310.813000",
        "202311.818000",
        "202312.834000",
        "202313.829000",
        "202314.833000",
        "202315.823000",
        "202316.826000",
        "202317.808000",
        "202318.810000",
        "202319.823000",
        "202320.809000",
        "202321.808000",
        "202322.806000",
        "202323.812000",
        "202324.855000"
      ],
      "InstanceNumber": [
        1,
        2,
        3,
        4,
        5,
        6,
        7,
        8,
        9,
        10,
        11,
        12,
        13,
        14,
        15,
        16,
        17,
        18,
        19,
        20,
        21,
        22,
        23,
        24,
        25,
        26,
        27,
        28,
        29,
        30,
        31,
        32,
        33,
        34,
        35,
        36,
        37,
        38,
        39,
        40,
        41,
        42,
        43,
        44,
        45,
        46,
        47,
        48,
        49,
        50,
        51,
        52,
        53,
        54,
        55,
        56,
        57,
        58,
        59,
        60,
        61,
        62,
        63,
        64,
        65,
        66,
        67,
        68,
        69,
        70,
        71,
        72,
        73,
        74,
        75,
        76,
        77,
        78,
        79,
        80,
        81,
        82,
        83,
        84,
        85,
        86,
        87,
        88,
        89,
        90,
        91,
        92,
        93,
        94,
        95,
        96,
        97,
        98,
        99,
        100,
        101,
        102,
        103,
        104,
        105,
        106,
        107,
        108,
        109,
        110,
        111,
        112,
        113,
        114,
        115,
        116,
        117,
        118,
        119,
        120,
        121,
        122,
        123,
        124,
        125,
        126,
        127,
        128,
        129,
        130,
        131,
        132,
        133,
        134,
        135,
        136,
        137,
        138,
        139,
        140,
        141,
        142,
        143,
        144,
        145,
        146,
        147,
        148,
        149,
        150,
        151,
        152,
        153,
        154,
        155,
