{
  "AcquisitionMatrixPE": 96,
  "AcquisitionNumber": 1,
  "BandwidthPerPixelPhaseEncode": 18.939,
  "BaseResolution": 96,
  "BodyPartExamined": "BRAIN",
  "ConsistencyInfo": "N4_VE11C_LATEST_20160120",
  "ConversionSoftware": "dcm2niix",
  "ConversionSoftwareVersion": "v1.0.20171215 (OpenJPEG build) GCC6.3.0",
  "DerivedVendorReportedEchoSpacing": 0.000550011,
  "DeviceSerialNumber": "66112",
  "DwellTime": 2.2e-06,
  "EchoTime": 0.033,
  "EchoTrainLength": 96,
  "EffectiveEchoSpacing": 0.000550011,
  "FlipAngle": 59,
  "ImageOrientationPatientDICOM": [
    0.999234,
    0.0366571,
    -0.0137073,
    -0.0380374,
    0.992072,
    -0.11978
  ],
  "ImageType": [
    "ORIGINAL",
    "PRIMARY",
    "FMRI",
    "NONE",
    "ND",
    "NORM",
    "MOSAIC"
  ],
  "InPlanePhaseEncodingDirectionDICOM": "COL",
  "InstitutionAddress": "Maynard_3_Hanover_NH_US_03755",
  "InstitutionName": "Dartmouth_College_-_PBS",
  "InstitutionalDepartmentName": "Department",
  "MRAcquisitionType": "2D",
  "MagneticFieldStrength": 3,
  "Manufacturer": "Siemens",
  "ManufacturersModelName": "Prisma",
  "Modality": "MR",
  "MultibandAccelerationFactor": 4,
  "PartialFourier": 1,
  "PatientPosition": "HFS",
  "PercentPhaseFOV": 100,
  "PhaseEncodingDirection": "j-",
  "PhaseEncodingSteps": 96,
  "PhaseResolution": 1,
  "PixelBandwidth": 2365,
  "ProcedureStepDescription": "Gobbini_Matteo_1038_hyperface",
  "ProtocolName": "func_run-06_task-visualmemory",
  "PulseSequenceDetails": "%SiemensSeq%_ep2d_bold",
  "ReceiveCoilActiveElements": "HEA;HEP",
  "ReceiveCoilName": "Head_32",
  "ReconMatrixPE": 96,
  "RepetitionTime": 1,
  "SAR": 0.0478777,
  "ScanOptions": "FS",
  "ScanningSequence": "EP",
  "SequenceName": "_epfid2d1_96",
  "SequenceVariant": "SK",
  "SeriesDescription": "func_run-06_task-visualmemory",
  "SeriesNumber": 42,
  "ShimSetting": [
    4151,
    -7684,
    -7283,
    516,
    -30,
    32,
    93,
    109
  ],
  "SliceThickness": 2.5,
  "SliceTiming": [
    0.735,
    0,
    0.49,
    0.0825,
    0.5725,
    0.165,
    0.655,
    0.3275,
    0.8175,
    0.41,
    0.9,
    0.245,
    0.735,
    0,
    0.49,
    0.0825,
    0.5725,
    0.165,
    0.655,
    0.3275,
    0.8175,
    0.41,
    0.9,
    0.245,
    0.735,
    0,
    0.49,
    0.0825,
    0.5725,
    0.165,
    0.655,
    0.3275,
    0.8175,
    0.41,
    0.9,
    0.245,
    0.735,
    0,
    0.49,
    0.0825,
    0.5725,
    0.165,
    0.655,
    0.3275,
    0.8175,
    0.41,
    0.9,
    0.245
  ],
  "SoftwareVersions": "syngo_MR_E11",
  "SpacingBetweenSlices": 2.5,
  "StationName": "AWP66112",
  "TotalReadoutTime": 0.0522511,
  "TxRefAmp": 240.049,
  "time": {
    "samples": {
      "AcquisitionNumber": [
        1,
        2,
        3,
        4,
        5,
        6,
        7,
        8,
        9,
        10,
        11,
        12,
        13,
        14,
        15,
        16,
        17,
        18,
        19,
        20,
        21,
        22,
        23,
        24,
        25,
        26,
        27,
        28,
        29,
        30,
        31,
        32,
        33,
        34,
        35,
        36,
        37,
        38,
        39,
        40,
        41,
        42,
        43,
        44,
        45,
        46,
        47,
        48,
        49,
        50,
        51,
        52,
        53,
        54,
        55,
        56,
        57,
        58,
        59,
        60,
        61,
        62,
        63,
        64,
        65,
        66,
        67,
        68,
        69,
        70,
        71,
        72,
        73,
        74,
        75,
        76,
        77,
        78,
        79,
        80,
        81,
        82,
        83,
        84,
        85,
        86,
        87,
        88,
        89,
        90,
        91,
        92,
        93,
        94,
        95,
        96,
        97,
        98,
        99,
        100,
        101,
        102,
        103,
        104,
        105,
        106,
        107,
        108,
        109,
        110,
        111,
        112,
        113,
        114,
        115,
        116,
        117,
        118,
        119,
        120,
        121,
        122,
        123,
        124,
        125,
        126,
        127,
        128,
        129,
        130,
        131,
        132,
        133,
        134,
        135,
        136,
        137,
        138,
        139,
        140,
        141,
        142,
        143,
        144,
        145,
        146,
        147,
        148,
        149,
        150,
        151,
        152,
        153,
        154,
        155,
        156,
        157,
        158,
        159,
        160,
        161,
        162,
        163,
        164,
        165,
        166,
        167,
        168,
        169,
        170,
        171,
        172,
        173,
        174,
        175,
        176,
        177,
        178,
        179,
        180,
        181,
        182,
        183,
        184,
        185,
        186,
        187,
        188,
        189,
        190,
        191,
        192,
        193,
        194,
        195,
        196,
        197,
        198,
        199,
        200,
        201,
        202,
        203,
        204,
        205,
        206,
        207,
        208,
        209,
        210,
        211,
        212,
        213,
        214,
        215,
        216,
        217,
        218,
        219,
        220,
        221,
        222,
        223,
        224,
        225,
        226,
        227,
        228,
        229,
        230,
        231,
        232,
        233,
        234,
        235,
        236,
        237,
        238,
        239,
        240,
        241,
        242,
        243,
        244,
        245,
        246,
        247,
        248,
        249,
        250,
        251,
        252,
        253,
        254,
        255,
        256,
        257,
        258,
        259,
        260,
        261,
        262,
        263,
        264,
        265,
        266,
        267,
        268,
        269,
        270,
        271,
        272,
        273,
        274,
        275,
        276,
        277,
        278,
        279,
        280,
        281,
        282,
        283,
        284,
        285,
        286,
        287,
        288
      ],
      "AcquisitionTime": [
        "203444.510000",
        "203445.510000",
        "203446.510000",
        "203447.510000",
        "203448.510000",
        "203449.510000",
        "203450.510000",
        "203451.510000",
        "203452.510000",
        "203453.510000",
        "203454.510000",
        "203455.510000",
        "203456.510000",
        "203457.510000",
        "203458.510000",
        "203459.510000",
        "203500.510000",
        "203501.510000",
        "203502.510000",
        "203503.510000",
        "203504.510000",
        "203505.510000",
        "203506.510000",
        "203507.510000",
        "203508.510000",
        "203509.510000",
        "203510.510000",
        "203511.510000",
        "203512.510000",
        "203513.510000",
        "203514.510000",
        "203515.510000",
        "203516.510000",
        "203517.510000",
        "203518.510000",
        "203519.510000",
        "203520.510000",
        "203521.510000",
        "203522.510000",
        "203523.510000",
        "203524.510000",
        "203525.510000",
        "203526.510000",
        "203527.510000",
        "203528.510000",
        "203529.510000",
        "203530.510000",
        "203531.510000",
        "203532.510000",
        "203533.510000",
        "203534.510000",
        "203535.510000",
        "203536.510000",
        "203537.510000",
        "203538.510000",
        "203539.510000",
        "203540.510000",
        "203541.510000",
        "203542.510000",
        "203543.510000",
        "203544.510000",
        "203545.510000",
        "203546.510000",
        "203547.510000",
        "203548.510000",
        "203549.510000",
        "203550.510000",
        "203551.510000",
        "203552.510000",
        "203553.510000",
        "203554.510000",
        "203555.510000",
        "203556.510000",
        "203557.510000",
        "203558.510000",
        "203559.510000",
        "203600.510000",
        "203601.510000",
        "203602.510000",
        "203603.510000",
        "203604.510000",
        "203605.510000",
        "203606.510000",
        "203607.510000",
        "203608.510000",
        "203609.510000",
        "203610.510000",
        "203611.510000",
        "203612.510000",
        "203613.510000",
        "203614.510000",
        "203615.510000",
        "203616.510000",
        "203617.510000",
        "203618.510000",
        "203619.510000",
        "203620.510000",
        "203621.510000",
        "203622.510000",
        "203623.510000",
        "203624.510000",
        "203625.510000",
        "203626.510000",
        "203627.510000",
        "203628.510000",
        "203629.510000",
        "203630.510000",
        "203631.510000",
        "203632.510000",
        "203633.510000",
        "203634.510000",
        "203635.510000",
        "203636.510000",
        "203637.510000",
        "203638.510000",
        "203639.510000",
        "203640.510000",
        "203641.510000",
        "203642.510000",
        "203643.510000",
        "203644.510000",
        "203645.510000",
        "203646.510000",
        "203647.510000",
        "203648.510000",
        "203649.510000",
        "203650.510000",
        "203651.510000",
        "203652.510000",
        "203653.510000",
        "203654.510000",
        "203655.510000",
        "203656.510000",
        "203657.510000",
        "203658.510000",
        "203659.510000",
        "203700.510000",
        "203701.510000",
        "203702.510000",
        "203703.510000",
        "203704.510000",
        "203705.510000",
        "203706.510000",
        "203707.510000",
        "203708.510000",
        "203709.510000",
        "203710.510000",
        "203711.510000",
        "203712.510000",
        "203713.510000",
        "203714.510000",
        "203715.510000",
        "203716.510000",
        "203717.510000",
        "203718.510000",
        "203719.510000",
        "203720.510000",
        "203721.510000",
        "203722.510000",
        "203723.510000",
        "203724.510000",
        "203725.510000",
        "203726.510000",
        "203727.510000",
        "203728.510000",
        "203729.510000",
        "203730.510000",
        "203731.510000",
        "203732.510000",
        "203733.510000",
        "203734.510000",
        "203735.510000",
        "203736.510000",
        "203737.510000",
        "203738.510000",
        "203739.510000",
        "203740.510000",
        "203741.510000",
        "203742.510000",
        "203743.510000",
        "203744.510000",
        "203745.510000",
        "203746.510000",
        "203747.510000",
        "203748.510000",
        "203749.510000",
        "203750.510000",
        "203751.510000",
        "203752.510000",
        "203753.510000",
        "203754.510000",
        "203755.510000",
        "203756.510000",
        "203757.510000",
        "203758.510000",
        "203759.510000",
        "203800.510000",
        "203801.510000",
        "203802.510000",
        "203803.510000",
        "203804.510000",
        "203805.510000",
        "203806.510000",
        "203807.510000",
        "203808.510000",
        "203809.510000",
        "203810.510000",
        "203811.510000",
        "203812.510000",
        "203813.510000",
        "203814.510000",
        "203815.510000",
        "203816.510000",
        "203817.510000",
        "203818.510000",
        "203819.510000",
        "203820.510000",
        "203821.510000",
        "203822.510000",
        "203823.510000",
        "203824.510000",
        "203825.510000",
        "203826.510000",
        "203827.510000",
        "203828.510000",
        "203829.510000",
        "203830.510000",
        "203831.510000",
        "203832.510000",
        "203833.510000",
        "203834.510000",
        "203835.510000",
        "203836.510000",
        "203837.510000",
        "203838.510000",
        "203839.510000",
        "203840.510000",
        "203841.510000",
        "203842.510000",
        "203843.510000",
        "203844.510000",
        "203845.510000",
        "203846.510000",
        "203847.510000",
        "203848.510000",
        "203849.510000",
        "203850.510000",
        "203851.510000",
        "203852.510000",
        "203853.510000",
        "203854.510000",
        "203855.510000",
        "203856.510000",
        "203857.510000",
        "203858.510000",
        "203859.510000",
        "203900.510000",
        "203901.510000",
        "203902.510000",
        "203903.510000",
        "203904.510000",
        "203905.510000",
        "203906.510000",
        "203907.510000",
        "203908.510000",
        "203909.510000",
        "203910.510000",
        "203911.510000",
        "203912.510000",
        "203913.510000",
        "203914.510000",
        "203915.510000",
        "203916.510000",
        "203917.510000",
        "203918.510000",
        "203919.510000",
        "203920.510000",
        "203921.510000",
        "203922.510000",
        "203923.510000",
        "203924.510000",
        "203925.510000",
        "203926.510000",
        "203927.510000",
        "203928.510000",
        "203929.510000",
        "203930.510000",
        "203931.510000"
      ],
      "ContentTime": [
        "203446.028000",
        "203446.870000",
        "203447.881000",
        "203448.924000",
        "203449.909000",
        "203450.871000",
        "203451.916000",
        "203452.897000",
        "203453.871000",
        "203454.874000",
        "203455.865000",
        "203456.888000",
        "203457.910000",
        "203458.884000",
        "203459.889000",
        "203500.885000",
        "203501.874000",
        "203502.878000",
        "203503.884000",
        "203504.861000",
        "203505.894000",
        "203506.875000",
        "203507.885000",
        "203508.872000",
        "203509.879000",
        "203510.894000",
        "203511.876000",
        "203512.882000",
        "203513.864000",
        "203514.878000",
        "203515.874000",
        "203516.909000",
        "203517.897000",
        "203518.899000",
        "203519.849000",
        "203520.922000",
        "203521.921000",
        "203522.852000",
        "203523.891000",
        "203524.893000",
        "203525.864000",
        "203526.873000",
        "203527.894000",
        "203528.873000",
        "203529.888000",
        "203530.877000",
        "203531.862000",
        "203532.867000",
        "203533.879000",
        "203534.888000",
        "203535.874000",
        "203536.866000",
        "203537.874000",
        "203538.906000",
        "203539.887000",
        "203540.882000",
        "203541.869000",
        "203542.899000",
        "203543.893000",
        "203544.845000",
        "203545.893000",
        "203546.877000",
        "203547.891000",
        "203548.898000",
        "203549.887000",
        "203550.925000",
        "203551.885000",
        "203552.895000",
        "203553.869000",
        "203554.855000",
        "203555.886000",
        "203556.908000",
        "203557.876000",
        "203558.892000",
        "203559.869000",
        "203600.890000",
        "203601.856000",
        "203602.887000",
        "203603.874000",
        "203604.890000",
        "203605.888000",
        "203606.867000",
        "203607.864000",
        "203608.898000",
        "203609.889000",
        "203610.872000",
        "203611.848000",
        "203612.872000",
        "203613.900000",
        "203614.887000",
        "203615.851000",
        "203616.894000",
        "203617.865000",
        "203618.859000",
        "203619.880000",
        "203620.892000",
        "203621.867000",
        "203622.895000",
        "203623.866000",
        "203624.875000",
        "203625.896000",
        "203626.904000",
        "203627.943000",
        "203628.897000",
        "203629.905000",
        "203630.899000",
        "203631.884000",
        "203632.882000",
        "203633.892000",
        "203634.886000",
        "203635.893000",
        "203636.881000",
        "203637.883000",
        "203638.886000",
        "203639.872000",
        "203640.888000",
        "203641.846000",
        "203642.865000",
        "203643.855000",
        "203644.899000",
        "203645.864000",
        "203646.911000",
        "203647.892000",
        "203648.896000",
        "203649.880000",
        "203650.883000",
        "203651.874000",
        "203652.905000",
        "203653.920000",
        "203654.877000",
        "203655.878000",
        "203656.928000",
        "203657.893000",
        "203658.897000",
        "203659.877000",
        "203700.899000",
        "203701.873000",
        "203702.867000",
        "203703.909000",
        "203704.918000",
        "203705.894000",
        "203706.908000",
        "203707.867000",
        "203708.886000",
        "203709.881000",
        "203710.921000",
        "203711.848000",
        "203712.891000",
        "203713.889000",
        "203714.864000",
        "203715.863000",
        "203716.932000",
        "203717.873000",
        "203718.875000",
        "203719.881000",
        "203720.897000",
        "203721.896000",
        "203722.878000",
        "203723.912000",
        "203724.884000",
        "203725.938000",
        "203726.893000",
        "203727.890000",
        "203728.866000",
        "203729.897000",
        "203730.911000",
        "203731.883000",
        "203732.913000",
        "203733.864000",
        "203734.895000",
        "203735.884000",
        "203736.877000",
        "203737.897000",
        "203738.904000",
        "203739.888000",
        "203740.902000",
        "203741.879000",
        "203742.869000",
        "203743.881000",
        "203744.897000",
        "203745.902000",
        "203746.876000",
        "203747.874000",
        "203748.891000",
        "203749.870000",
        "203750.896000",
        "203751.902000",
        "203752.903000",
        "203753.893000",
        "203754.863000",
        "203755.906000",
        "203756.864000",
        "203757.899000",
        "203758.910000",
        "203759.889000",
        "203800.893000",
        "203801.896000",
        "203802.859000",
        "203803.878000",
        "203804.867000",
        "203805.847000",
        "203806.928000",
        "203807.901000",
        "203808.874000",
        "203809.928000",
        "203810.884000",
        "203811.905000",
        "203812.872000",
        "203813.889000",
        "203814.901000",
        "203815.884000",
        "203816.910000",
        "203817.861000",
        "203818.902000",
        "203819.896000",
        "203820.912000",
        "203821.884000",
        "203822.897000",
        "203823.878000",
        "203824.857000",
        "203825.936000",
        "203826.964000",
        "203827.868000",
        "203828.894000",
        "203829.892000",
        "203830.840000",
        "203831.891000",
        "203832.914000",
        "203833.903000",
        "203834.899000",
        "203835.914000",
        "203836.894000",
        "203837.856000",
        "203838.891000",
        "203839.851000",
        "203840.903000",
        "203841.879000",
        "203842.898000",
        "203843.900000",
        "203844.876000",
        "203845.898000",
        "203846.882000",
        "203847.858000",
        "203848.835000",
        "203849.906000",
        "203850.885000",
        "203851.879000",
        "203852.869000",
        "203853.883000",
        "203854.872000",
        "203855.893000",
        "203856.886000",
        "203857.844000",
        "203858.866000",
        "203859.885000",
        "203900.892000",
        "203901.925000",
        "203902.896000",
        "203903.923000",
        "203904.930000",
        "203905.895000",
        "203906.873000",
        "203907.896000",
        "203908.897000",
        "203909.909000",
        "203910.902000",
        "203911.875000",
        "203912.884000",
        "203913.882000",
        "203914.890000",
        "203915.882000",
        "203916.863000",
        "203917.961000",
        "203918.896000",
        "203919.872000",
        "203920.876000",
        "203921.887000",
        "203922.837000",
        "203923.889000",
        "203924.860000",
        "203925.867000",
        "203926.896000",
        "203927.873000",
        "203928.862000",
        "203929.883000",
        "203930.877000",
        "203931.866000",
        "203932.915000"
      ],
      "InstanceCreationTime": [
        "203446.028000",
        "203446.870000",
        "203447.881000",
        "203448.924000",
        "203449.909000",
        "203450.871000",
        "203451.916000",
        "203452.897000",
        "203453.871000",
        "203454.874000",
        "203455.865000",
        "203456.888000",
        "203457.910000",
        "203458.884000",
        "203459.889000",
        "203500.885000",
        "203501.874000",
        "203502.878000",
        "203503.884000",
        "203504.861000",
        "203505.894000",
        "203506.875000",
        "203507.885000",
        "203508.872000",
        "203509.879000",
        "203510.894000",
        "203511.876000",
        "203512.882000",
        "203513.864000",
        "203514.878000",
        "203515.874000",
        "203516.909000",
        "203517.897000",
        "203518.899000",
        "203519.849000",
        "203520.922000",
        "203521.921000",
        "203522.852000",
        "203523.891000",
        "203524.893000",
        "203525.864000",
        "203526.873000",
        "203527.894000",
        "203528.873000",
        "203529.888000",
        "203530.877000",
        "203531.862000",
        "203532.867000",
        "203533.879000",
        "203534.888000",
        "203535.874000",
        "203536.866000",
        "203537.874000",
        "203538.906000",
        "203539.887000",
        "203540.882000",
        "203541.869000",
        "203542.899000",
        "203543.893000",
        "203544.845000",
        "203545.893000",
        "203546.877000",
        "203547.891000",
        "203548.898000",
        "203549.887000",
        "203550.925000",
        "203551.885000",
        "203552.895000",
        "203553.869000",
        "203554.855000",
        "203555.886000",
        "203556.908000",
        "203557.876000",
        "203558.892000",
        "203559.869000",
        "203600.890000",
        "203601.856000",
        "203602.887000",
        "203603.874000",
        "203604.890000",
        "203605.888000",
        "203606.867000",
        "203607.864000",
        "203608.898000",
        "203609.889000",
        "203610.872000",
        "203611.848000",
        "203612.872000",
        "203613.900000",
        "203614.887000",
        "203615.851000",
        "203616.894000",
        "203617.865000",
        "203618.859000",
        "203619.880000",
        "203620.892000",
        "203621.867000",
        "203622.895000",
        "203623.866000",
        "203624.875000",
        "203625.896000",
        "203626.904000",
        "203627.943000",
        "203628.897000",
        "203629.905000",
        "203630.899000",
        "203631.884000",
        "203632.882000",
        "203633.892000",
        "203634.886000",
        "203635.893000",
        "203636.881000",
        "203637.883000",
        "203638.886000",
        "203639.872000",
        "203640.888000",
        "203641.846000",
        "203642.865000",
        "203643.855000",
        "203644.899000",
        "203645.864000",
        "203646.911000",
        "203647.892000",
        "203648.896000",
        "203649.880000",
        "203650.883000",
        "203651.874000",
        "203652.905000",
        "203653.920000",
        "203654.877000",
        "203655.878000",
        "203656.928000",
        "203657.893000",
        "203658.897000",
        "203659.877000",
        "203700.899000",
        "203701.873000",
        "203702.867000",
        "203703.909000",
        "203704.918000",
        "203705.894000",
        "203706.908000",
        "203707.867000",
        "203708.886000",
        "203709.881000",
        "203710.921000",
        "203711.848000",
        "203712.891000",
        "203713.889000",
        "203714.864000",
        "203715.863000",
        "203716.932000",
        "203717.873000",
        "203718.875000",
        "203719.881000",
        "203720.897000",
        "203721.896000",
        "203722.878000",
        "203723.912000",
        "203724.884000",
        "203725.938000",
        "203726.893000",
        "203727.890000",
        "203728.866000",
        "203729.897000",
        "203730.911000",
        "203731.883000",
        "203732.913000",
        "203733.864000",
        "203734.895000",
        "203735.884000",
        "203736.877000",
        "203737.897000",
        "203738.904000",
        "203739.888000",
        "203740.902000",
        "203741.879000",
        "203742.869000",
        "203743.881000",
        "203744.897000",
        "203745.902000",
        "203746.876000",
        "203747.874000",
        "203748.891000",
        "203749.870000",
        "203750.896000",
        "203751.902000",
        "203752.903000",
        "203753.893000",
        "203754.863000",
        "203755.906000",
        "203756.864000",
        "203757.899000",
        "203758.910000",
        "203759.889000",
        "203800.893000",
        "203801.896000",
        "203802.859000",
        "203803.878000",
        "203804.867000",
        "203805.847000",
        "203806.928000",
        "203807.901000",
        "203808.874000",
        "203809.928000",
        "203810.884000",
        "203811.905000",
        "203812.872000",
        "203813.889000",
        "203814.901000",
        "203815.884000",
        "203816.910000",
        "203817.861000",
        "203818.902000",
        "203819.896000",
        "203820.912000",
        "203821.884000",
        "203822.897000",
        "203823.878000",
        "203824.857000",
        "203825.936000",
        "203826.964000",
        "203827.868000",
        "203828.894000",
        "203829.892000",
        "203830.840000",
        "203831.891000",
        "203832.914000",
        "203833.903000",
        "203834.899000",
        "203835.914000",
        "203836.894000",
        "203837.856000",
        "203838.891000",
        "203839.851000",
        "203840.903000",
        "203841.879000",
        "203842.898000",
        "203843.900000",
        "203844.876000",
        "203845.898000",
        "203846.882000",
        "203847.858000",
        "203848.835000",
        "203849.906000",
        "203850.885000",
        "203851.879000",
        "203852.869000",
        "203853.883000",
        "203854.872000",
        "203855.893000",
        "203856.886000",
        "203857.844000",
        "203858.866000",
        "203859.885000",
        "203900.892000",
        "203901.925000",
        "203902.896000",
        "203903.923000",
        "203904.930000",
        "203905.895000",
        "203906.873000",
        "203907.896000",
        "203908.897000",
        "203909.909000",
        "203910.902000",
        "203911.875000",
        "203912.884000",
        "203913.882000",
        "203914.890000",
        "203915.882000",
        "203916.863000",
        "203917.961000",
        "203918.896000",
        "203919.872000",
        "203920.876000",
        "203921.887000",
        "203922.837000",
        "203923.889000",
        "203924.860000",
        "203925.867000",
        "203926.896000",
        "203927.873000",
        "203928.862000",
        "203929.883000",
        "203930.877000",
        "203931.866000",
        "203932.915000"
      ],
      "InstanceNumber": [
        1,
        2,
        3,
        4,
        5,
        6,
        7,
        8,
        9,
        10,
        11,
        12,
        13,
        14,
        15,
        16,
        17,
        18,
        19,
        20,
        21,
        22,
        23,
        24,
        25,
        26,
        27,
        28,
        29,
        30,
        31,
        32,
        33,
        34,
        35,
        36,
        37,
        38,
        39,
        40,
        41,
        42,
        43,
        44,
        45,
        46,
        47,
        48,
        49,
        50,
        51,
        52,
        53,
        54,
        55,
        56,
        57,
        58,
        59,
        60,
        61,
        62,
        63,
        64,
        65,
        66,
        67,
        68,
        69,
        70,
        71,
        72,
        73,
        74,
        75,
        76,
        77,
        78,
        79,
        80,
        81,
        82,
        83,
        84,
        85,
        86,
        87,
        88,
        89,
        90,
        91,
        92,
        93,
        94,
        95,
        96,
        97,
        98,
        99,
        100,
        101,
        102,
        103,
        104,
        105,
        106,
        107,
        108,
        109,
        110,
        111,
        112,
        113,
        114,
        115,
        116,
        117,
        118,
        119,
        120,
        121,
        122,
        123,
        124,
        125,
        126,
        127,
        128,
        129,
        130,
        131,
        132,
        133,
        134,
        135,
        136,
        137,
        138,
        139,
        140,
        141,
        142,
        143,
        144,
        145,
        146,
        147,
        148,
        149,
        150,
        151,
        152,
        153,
        154,
        155,
        156,
