{
  "AcquisitionMatrixPE": 120,
  "AcquisitionNumber": 1,
  "AcquisitionTime": "12:09:21.582500",
  "BandwidthPerPixelPhaseEncode": 13.889,
  "BaseResolution": 120,
  "BodyPartExamined": "BRAIN",
  "ConsistencyInfo": "N4_VE11C_LATEST_20160120",
  "ConversionSoftware": "dcm2niix",
  "ConversionSoftwareVersion": "v1.0.20171215 (OpenJPEG build) GCC6.3.0",
  "DerivedVendorReportedEchoSpacing": 0.000599995,
  "DeviceSerialNumber": "66112",
  "DwellTime": 2e-06,
  "EchoTime": 0.103,
  "EchoTrainLength": 120,
  "EffectiveEchoSpacing": 0.000599995,
  "FlipAngle": 90,
  "ImageOrientationPatientDICOM": [0.999425, 0.0186473, -0.028329, -0.0183174, 0.999762, 0.01186],
  "ImageType": [
    "ORIGINAL",
    "PRIMARY",
    "DIFFUSION",
    "NONE",
    "ND",
    "NORM",
    "MOSAIC"
],
  "InPlanePhaseEncodingDirectionDICOM": "COL",
  "InstitutionAddress": "Maynard_3_Hanover_NH_US_03755",
  "InstitutionName": "Dartmouth_College_-_PBS",
  "InstitutionalDepartmentName": "Department",
  "MRAcquisitionType": "2D",
  "MagneticFieldStrength": 3,
  "Manufacturer": "Siemens",
  "ManufacturersModelName": "Prisma",
  "Modality": "MR",
  "MultibandAccelerationFactor": 4,
  "PartialFourier": 1,
  "PatientPosition": "HFS",
  "PercentPhaseFOV": 100,
  "PhaseEncodingDirection": "j-",
  "PhaseEncodingSteps": 120,
  "PhaseResolution": 1,
  "PixelBandwidth": 2085,
  "ProcedureStepDescription": "Gobbini_Matteo_1038_hyperface",
  "ProtocolName": "dwi_acq-2.0mmXhardi96Xsms4X11b0",
  "PulseSequenceDetails": "%SiemensSeq%_ep2d_diff",
  "ReceiveCoilActiveElements": "HEA;HEP",
  "ReceiveCoilName": "Head_32",
  "ReconMatrixPE": 120,
  "RepetitionTime": 2.6,
  "SAR": 0.283971,
  "ScanOptions": "FS",
  "ScanningSequence": "EP",
  "SequenceName": "_ep_b0",
  "SequenceVariant": "SK_SP",
  "SeriesDescription": "dwi_acq-2.0mmXhardi96Xsms4X11b0",
  "SeriesNumber": 66,
  "ShimSetting": [4147, -7753, -7433, 879, -103, -433, 333, 75],
  "SliceThickness": 2,
  "SliceTiming": [1.935, 0, 1.29, 0.16, 1.45, 0.3225, 1.6125, 0.4825, 1.7725, 0.805, 2.095, 0.9675, 2.2575, 1.1275, 2.4175, 0.645, 1.935, 0, 1.29, 0.16, 1.45, 0.3225, 1.6125, 0.4825, 1.7725, 0.805, 2.095, 0.9675, 2.2575, 1.1275, 2.4175, 0.645, 1.935, 0, 1.29, 0.16, 1.45, 0.3225, 1.6125, 0.4825, 1.7725, 0.805, 2.095, 0.9675, 2.2575, 1.1275, 2.4175, 0.645, 1.935, 0, 1.29, 0.16, 1.45, 0.3225, 1.6125, 0.4825, 1.7725, 0.805, 2.095, 0.9675, 2.2575, 1.1275, 2.4175, 0.645],
  "SoftwareVersions": "syngo_MR_E11",
  "SpacingBetweenSlices": 2,
  "StationName": "AWP66112",
  "TotalReadoutTime": 0.0713994,
  "TxRefAmp": 238.973,
  "dcmmeta_affine": [
    [-1.9988493919372559, -0.036634884774684906, -0.057086843997240067, 123.73968505859375],
    [-0.037294652312994, 1.9995237588882446, 0.022668451070785522, -98.20104217529297],
    [-0.05665802210569382, -0.023719925433397293, 1.9990565776824951, -93.0042495727539],
    [0.0, 0.0, 0.0, 1.0]
],
  "dcmmeta_reorient_transform": [
    [0.0, -1.0, 0.0, 119.0],
    [1.0, 0.0, 0.0, 0.0],
    [0.0, 0.0, 1.0, 0.0],
    [0.0, 0.0, 0.0, 1.0]
],
  "dcmmeta_shape": [120, 120, 64, 107],
  "dcmmeta_slice_dim": 2,
  "dcmmeta_version": 0.6,
  "global": {
    "const": {
      "AccessionNumber": "A001308",
      "AcquisitionMatrix": [120, 0, 0, 120],
      "AngioFlag": "N",
      "BitsAllocated": 16,
      "BitsStored": 12,
      "BodyPartExamined": "BRAIN",
      "Columns": 960,
      "EchoNumbers": 1,
      "EchoTime": 103.0,
      "EchoTrainLength": 120,
      "FlipAngle": 90.0,
      "HighBit": 11,
      "ImageOrientationPatient": [0.99942470670223, 0.01864732660518, -0.0283290106365, -0.0183174431491, 0.99976187792586, 0.01185996301216],
      "ImagePositionPatient": [-943.51023451141, -995.20601277192, -81.992921678132],
      "ImageType": [
        "ORIGINAL",
        "PRIMARY",
        "DIFFUSION",
        "NONE",
        "ND",
        "NORM",
        "MOSAIC"
],
      "ImagedNucleus": "1H",
      "ImagingFrequency": 123.252363,
      "InPlanePhaseEncodingDirection": "COL",
      "MRAcquisitionType": "2D",
      "MagneticFieldStrength": 3.0,
      "Manufacturer": "SIEMENS",
      "ManufacturerModelName": "Prisma",
      "Modality": "MR",
      "NumberOfAverages": 1.0,
      "NumberOfPhaseEncodingSteps": 120,
      "PercentPhaseFieldOfView": 100.0,
      "PercentSampling": 100.0,
      "PerformedProcedureStepStartTime": "111704.481000",
      "PhotometricInterpretation": "MONOCHROME2",
      "PixelBandwidth": 2085.0,
      "PixelRepresentation": 0,
      "PixelSpacing": [2.0, 2.0],
      "PositionReferenceIndicator": "",
      "ProtocolName": "dwi_acq-2.0mmXhardi96Xsms4X11b0",
      "RepetitionTime": 2600.0,
      "Rows": 960,
      "SAR": 0.28397143171435,
      "SamplesPerPixel": 1,
      "ScanOptions": "FS",
      "ScanningSequence": "EP",
      "SequenceVariant": [
        "SK",
        "SP"
],
      "SeriesDescription": "dwi_acq-2.0mmXhardi96Xsms4X11b0",
      "SeriesNumber": 66,
      "SeriesTime": "121026.139000",
      "SliceLocation": -97.605366448825,
      "SliceThickness": 2.0,
      "SmallestImagePixelValue": 0,
      "SoftwareVersions": "syngo MR E11",
      "SpacingBetweenSlices": 2.0000000333495,
      "SpecificCharacterSet": "ISO_IR 100",
      "StudyID": "3",
      "StudyTime": "111704.427000",
      "TransmitCoilName": "Body",
      "VariableFlipAngleFlag": "N",
      "WindowCenterWidthExplanation": "Algo1",
      "dBdt": 0.0},
    "slices": {}
  },
  "time": {
    "samples": {
      "AcquisitionNumber": [1, 2, 3, 4, 5, 6, 7, 8, 9, 10, 11, 12, 13, 14, 15, 16, 17, 18, 19, 20, 21, 22, 23, 24, 25, 26, 27, 28, 29, 30, 31, 32, 33, 34, 35, 36, 37, 38, 39, 40, 41, 42, 43, 44, 45, 46, 47, 48, 49, 50, 51, 52, 53, 54, 55, 56, 57, 58, 59, 60, 61, 62, 63, 64, 65, 66, 67, 68, 69, 70, 71, 72, 73, 74, 75, 76, 77, 78, 79, 80, 81, 82, 83, 84, 85, 86, 87, 88, 89, 90, 91, 92, 93, 94, 95, 96, 97, 98, 99, 100, 101, 102, 103, 104, 105, 106, 107],
      "AcquisitionTime": ["120921.582500", "120924.182500", "120926.782500", "120929.382500", "120931.982500", "120934.582500", "120937.182500", "120939.782500", "120942.382500", "120944.982500", "120947.582500", "120950.182500", "120952.782500", "120955.382500", "120957.982500", "121000.582500", "121003.182500", "121005.782500", "121008.382500", "121010.982500", "121013.582500", "121016.182500", "121018.782500", "121021.382500", "121023.982500", "121026.582500", "121029.182500", "121031.782500", "121034.382500", "121036.982500", "121039.582500", "121042.182500", "121044.782500", "121047.382500", "121049.982500", "121052.582500", "121055.182500", "121057.782500", "121100.382500", "121102.982500", "121105.582500", "121108.182500", "121110.782500", "121113.382500", "121115.982500", "121118.582500", "121121.182500", "121123.782500", "121126.382500", "121128.982500", "121131.582500", "121134.182500", "121136.782500", "121139.382500", "121141.982500", "121144.582500", "121147.182500", "121149.782500", "121152.382500", "121154.982500", "121157.582500", "121200.182500", "121202.782500", "121205.382500", "121207.982500", "121210.582500", "121213.182500", "121215.782500", "121218.382500", "121220.982500", "121223.582500", "121226.182500", "121228.782500", "121231.382500", "121233.982500", "121236.582500", "121239.182500", "121241.782500", "121244.382500", "121246.982500", "121249.582500", "121252.182500", "121254.782500", "121257.382500", "121259.982500", "121302.582500", "121305.182500", "121307.782500", "121310.382500", "121312.982500", "121315.582500", "121318.182500", "121320.782500", "121323.382500", "121325.982500", "121328.582500", "121331.182500", "121333.782500", "121336.382500", "121338.982500", "121341.582500", "121344.182500", "121346.782500", "121349.382500", "121351.982500", "121354.582500", "121357.182500"],
      "ContentTime": ["121026.143000", "121026.146000", "121026.150000", "121026.159000", "121026.162000", "121026.165000", "121026.168000", "121026.171000", "121026.180000", "121026.183000", "121026.186000", "121026.189000", "121026.192000", "121026.195000", "121026.198000", "121026.201000", "121026.210000", "121026.213000", "121026.216000", "121026.220000", "121026.224000", "121026.227000", "121026.233000", "121026.237000", "121126.139000", "121126.143000", "121126.146000", "121126.149000", "121126.152000", "121126.155000", "121126.214000", "121126.217000", "121126.220000", "121126.223000", "121126.226000", "121126.229000", "121126.233000", "121126.236000", "121126.239000", "121126.242000", "121126.245000", "121126.248000", "121126.252000", "121126.255000", "121126.258000", "121126.261000", "121126.264000", "121126.267000", "121146.139000", "121146.143000", "121146.146000", "121146.149000", "121146.152000", "121146.155000", "121146.159000", "121246.138000", "121246.141000", "121246.145000", "121246.148000", "121246.151000", "121246.154000", "121246.157000", "121246.160000", "121246.164000", "121246.167000", "121246.170000", "121246.173000", "121246.176000", "121246.179000", "121246.182000", "121246.186000", "121246.189000", "121246.192000", "121246.195000", "121246.198000", "121246.201000", "121246.204000", "121246.207000", "121346.139000", "121346.143000", "121346.146000", "121346.149000", "121346.153000", "121346.156000", "121346.159000", "121346.162000", "121346.165000", "121346.168000", "121346.172000", "121346.175000", "121346.178000", "121346.181000", "121346.184000", "121346.187000", "121346.191000", "121346.194000", "121346.197000", "121346.200000", "121346.203000", "121346.206000", "121346.209000", "121359.444000", "121359.447000", "121359.451000", "121359.454000", "121359.457000", "121359.460000"],
      "InstanceCreationTime": ["121026.143000", "121026.146000", "121026.150000", "121026.159000", "121026.162000", "121026.165000", "121026.168000", "121026.171000", "121026.180000", "121026.183000", "121026.186000", "121026.189000", "121026.192000", "121026.195000", "121026.198000", "121026.201000", "121026.210000", "121026.213000", "121026.216000", "121026.220000", "121026.224000", "121026.227000", "121026.233000", "121026.237000", "121126.139000", "121126.143000", "121126.146000", "121126.149000", "121126.152000", "121126.155000", "121126.214000", "121126.217000", "121126.220000", "121126.223000", "121126.226000", "121126.229000", "121126.233000", "121126.236000", "121126.239000", "121126.242000", "121126.245000", "121126.248000", "121126.252000", "121126.255000", "121126.258000", "121126.261000", "121126.264000", "121126.267000", "121146.139000", "121146.143000", "121146.146000", "121146.149000", "121146.152000", "121146.155000", "121146.159000", "121246.138000", "121246.141000", "121246.145000", "121246.148000", "121246.151000", "121246.154000", "121246.157000", "121246.160000", "121246.164000", "121246.167000", "121246.170000", "121246.173000", "121246.176000", "121246.179000", "121246.182000", "121246.186000", "121246.189000", "121246.192000", "121246.195000", "121246.198000", "121246.201000", "121246.204000", "121246.207000", "121346.139000", "121346.143000", "121346.146000", "121346.149000", "121346.153000", "121346.156000", "121346.159000", "121346.162000", "121346.165000", "121346.168000", "121346.172000", "121346.175000", "121346.178000", "121346.181000", "121346.184000", "121346.187000", "121346.191000", "121346.194000", "121346.197000", "121346.200000", "121346.203000", "121346.206000", "121346.209000", "121359.444000", "121359.447000", "121359.451000", "121359.454000", "121359.457000", "121359.460000"],
      "InstanceNumber": [1, 2, 3, 4, 5, 6, 7, 8, 9, 10, 11, 12, 13, 14, 15, 16, 17, 18, 19, 20, 21, 22, 23, 24, 25, 26, 27, 28, 29, 30, 31, 32, 33, 34, 35, 36, 37, 38, 39, 40, 41, 42, 43, 44, 45, 46, 47, 48, 49, 50, 51, 52, 53, 54, 55, 56, 57, 58, 59, 60, 61, 62, 63, 64, 65, 66, 67, 68, 69, 70, 71, 72, 73, 74, 75, 76, 77, 78, 79, 80, 81, 82, 83, 84, 85, 86, 87, 88, 89, 90, 91, 92, 93, 94, 95, 96, 97, 98, 99, 100, 101, 102, 103, 104, 105, 106, 107],
      "LargestImagePixelValue": [2833, 2359, 498, 536, 534, 612, 580, 515, 500, 454, 604, 2189, 556, 577, 507, 559, 588, 479, 570, 573, 555, 556, 2447, 578, 554, 586, 538, 602, 573, 503, 532, 545, 521, 2084, 514, 494, 501, 529, 511, 529, 593, 559, 575, 543, 2436, 502, 514, 527, 557, 522, 602, 503, 561, 408, 563, 2503, 516, 535, 563, 520, 525, 477, 635, 518, 594, 566, 1968, 509, 545, 552, 583, 569, 537, 552, 562, 512, 500, 2139, 492, 613, 550, 517, 423, 502, 555, 564, 527, 2540, 585, 578, 534, 567, 537, 498, 562, 529, 560, 2330, 545, 560, 561, 616, 523, 567, 575, 488, 498],
      "SequenceName": [
        "*ep_b0",
        "*ep_b0",
        "*ep_b1000#2",
        "*ep_b1000#3",
        "*ep_b1000#4",
        "*ep_b1000#5",
        "*ep_b1000#6",
        "*ep_b1000#7",
        "*ep_b1000#8",
        "*ep_b1000#9",
        "*ep_b1000#10",
        "*ep_b0",
        "*ep_b1000#12",
        "*ep_b1000#13",
        "*ep_b1000#14",
        "*ep_b1000#15",
        "*ep_b1000#16",
        "*ep_b1000#17",
        "*ep_b1000#18",
        "*ep_b1000#19",
        "*ep_b1000#20",
        "*ep_b1000#21",
        "*ep_b0",
        "*ep_b1000#23",
        "*ep_b1000#24",
        "*ep_b1000#25",
        "*ep_b1000#26",
        "*ep_b1000#27",
        "*ep_b1000#28",
        "*ep_b1000#29",
        "*ep_b1000#30",
        "*ep_b1000#31",
        "*ep_b1000#32",
        "*ep_b0",
        "*ep_b1000#34",
        "*ep_b1000#35",
        "*ep_b1000#36",
        "*ep_b1000#37",
        "*ep_b1000#38",
        "*ep_b1000#39",
        "*ep_b1000#40",
        "*ep_b1000#41",
        "*ep_b1000#42",
        "*ep_b1000#43",
        "*ep_b0",
        "*ep_b1000#45",
        "*ep_b1000#46",
        "*ep_b1000#47",
        "*ep_b1000#48",
        "*ep_b1000#49",
        "*ep_b1000#50",
        "*ep_b1000#51",
        "*ep_b1000#52",
        "*ep_b1000#53",
        "*ep_b1000#54",
        "*ep_b0",
        "*ep_b1000#56",
        "*ep_b1000#57",
        "*ep_b1000#58",
        "*ep_b1000#59",
        "*ep_b1000#60",
        "*ep_b1000#61",
        "*ep_b1000#62",
        "*ep_b1000#63",
        "*ep_b1000#64",
        "*ep_b1000#65",
        "*ep_b0",
        "*ep_b1000#67",
        "*ep_b1000#68",
        "*ep_b1000#69",
        "*ep_b1000#70",
        "*ep_b1000#71",
        "*ep_b1000#72",
        "*ep_b1000#73",
        "*ep_b1000#74",
        "*ep_b1000#75",
        "*ep_b1000#76",
        "*ep_b0",
        "*ep_b1000#78",
        "*ep_b1000#79",
        "*ep_b1000#80",
        "*ep_b1000#81",
        "*ep_b1000#82",
        "*ep_b1000#83",
        "*ep_b1000#84",
        "*ep_b1000#85",
        "*ep_b1000#86",
        "*ep_b0",
        "*ep_b1000#88",
        "*ep_b1000#89",
        "*ep_b1000#90",
        "*ep_b1000#91",
        "*ep_b1000#92",
        "*ep_b1000#93",
        "*ep_b1000#94",
        "*ep_b1000#95",
        "*ep_b1000#96",
        "*ep_b0",
        "*ep_b1000#98",
        "*ep_b1000#99",
        "*ep_b1000#100",
        "*ep_b1000#101",
        "*ep_b1000#102",
        "*ep_b1000#103",
        "*ep_b1000#104",
        "*ep_b1000#105",
        "*ep_b1000#106"
],
      "WindowCenter": [270.0, 239.0, 91.0, 93.0, 91.0, 93.0, 92.0, 90.0, 93.0, 89.0, 93.0, 228.0, 93.0, 91.0, 90.0, 92.0, 92.0, 90.0, 92.0, 93.0, 91.0, 92.0, 242.0, 92.0, 93.0, 91.0, 91.0, 93.0, 90.0, 92.0, 91.0, 91.0, 94.0, 223.0, 91.0, 91.0, 89.0, 93.0, 91.0, 93.0, 92.0, 92.0, 91.0, 93.0, 242.0, 90.0, 91.0, 93.0, 91.0, 91.0, 91.0, 91.0, 92.0, 90.0, 92.0, 245.0, 93.0, 90.0, 92.0, 91.0, 93.0, 91.0, 92.0, 91.0, 92.0, 91.0, 221.0, 91.0, 93.0, 92.0, 90.0, 91.0, 91.0, 92.0, 91.0, 92.0, 90.0, 227.0, 92.0, 92.0, 93.0, 91.0, 92.0, 90.0, 93.0, 93.0, 91.0, 247.0, 91.0, 92.0, 93.0, 92.0, 92.0, 90.0, 93.0, 91.0, 92.0, 236.0, 92.0, 91.0, 91.0, 92.0, 92.0, 92.0, 92.0, 92.0, 90.0],
      "WindowWidth": [592.0, 548.0, 234.0, 240.0, 236.0, 239.0, 237.0, 234.0, 239.0, 231.0, 240.0, 532.0, 239.0, 236.0, 233.0, 238.0, 238.0, 233.0, 238.0, 240.0, 235.0, 238.0, 551.0, 238.0, 241.0, 235.0, 236.0, 240.0, 234.0, 237.0, 234.0, 235.0, 241.0, 526.0, 236.0, 236.0, 231.0, 239.0, 235.0, 240.0, 238.0, 237.0, 235.0, 239.0, 549.0, 234.0, 235.0, 239.0, 236.0, 236.0, 235.0, 235.0, 237.0, 234.0, 237.0, 556.0, 239.0, 233.0, 238.0, 234.0, 240.0, 236.0, 237.0, 234.0, 236.0, 235.0, 523.0, 234.0, 240.0, 237.0, 234.0, 236.0, 235.0, 238.0, 235.0, 238.0, 234.0, 532.0, 238.0, 237.0, 239.0, 235.0, 236.0, 235.0, 239.0, 239.0, 235.0, 559.0, 236.0, 238.0, 239.0, 238.0, 236.0, 233.0, 241.0, 236.0, 237.0, 541.0, 238.0, 236.0, 234.0, 237.0, 237.0, 238.0, 237.0, 237.0, 233.0]
    },
    "slices": {}
  }
}