{
  "AcquisitionMatrixPE": 96,
  "AcquisitionNumber": 1,
  "AcquisitionTime": "11:24:19.497500",
  "BandwidthPerPixelPhaseEncode": 18.939,
  "BaseResolution": 96,
  "BodyPartExamined": "BRAIN",
  "ConsistencyInfo": "N4_VE11C_LATEST_20160120",
  "ConversionSoftware": "dcm2niix",
  "ConversionSoftwareVersion": "v1.0.20171215 (OpenJPEG build) GCC6.3.0",
  "DerivedVendorReportedEchoSpacing": 0.000550011,
  "DeviceSerialNumber": "66112",
  "DwellTime": 2.2e-06,
  "EchoTime": 0.033,
  "EchoTrainLength": 96,
  "EffectiveEchoSpacing": 0.000550011,
  "FlipAngle": 59,
  "ImageOrientationPatientDICOM": [
    0.997541,
    0.0419104,
    0.0561695,
    -0.0367525,
    0.995272,
    -0.0899078
  ],
  "ImageType": [
    "ORIGINAL",
    "PRIMARY",
    "FMRI",
    "NONE",
    "ND",
    "NORM",
    "MOSAIC"
  ],
  "InPlanePhaseEncodingDirectionDICOM": "COL",
  "InstitutionAddress": "Maynard_3_Hanover_NH_US_03755",
  "InstitutionName": "Dartmouth_College_-_PBS",
  "InstitutionalDepartmentName": "Department",
  "MRAcquisitionType": "2D",
  "MagneticFieldStrength": 3,
  "Manufacturer": "Siemens",
  "ManufacturersModelName": "Prisma",
  "Modality": "MR",
  "MultibandAccelerationFactor": 4,
  "PatientPosition": "HFS",
  "PercentPhaseFOV": 100,
  "PhaseEncodingDirection": "j-",
  "PhaseEncodingSteps": 96,
  "PhaseResolution": 1,
  "PixelBandwidth": 2365,
  "ProcedureStepDescription": "Gobbini_Matteo_1038_hyperface",
  "ProtocolName": "func_run-02_task-visualmemory",
  "PulseSequenceDetails": "%SiemensSeq%_ep2d_bold",
  "ReceiveCoilActiveElements": "HEA;HEP",
  "ReceiveCoilName": "Head_32",
  "ReconMatrixPE": 96,
  "RepetitionTime": 1,
  "SAR": 0.0505738,
  "ScanOptions": "FS",
  "ScanningSequence": "EP",
  "SequenceName": "_epfid2d1_96",
  "SequenceVariant": "SK",
  "SeriesDescription": "func_run-02_task-visualmemory",
  "SeriesNumber": 15,
  "ShimSetting": [
    4152,
    -7697,
    -7411,
    701,
    37,
    -170,
    -24,
    30
  ],
  "SliceThickness": 2.5,
  "SliceTiming": [
    0.735,
    0,
    0.49,
    0.08,
    0.57,
    0.1625,
    0.6525,
    0.325,
    0.815,
    0.4075,
    0.8975,
    0.245,
    0.735,
    0,
    0.49,
    0.08,
    0.57,
    0.1625,
    0.6525,
    0.325,
    0.815,
    0.4075,
    0.8975,
    0.245,
    0.735,
    0,
    0.49,
    0.08,
    0.57,
    0.1625,
    0.6525,
    0.325,
    0.815,
    0.4075,
    0.8975,
    0.245,
    0.735,
    0,
    0.49,
    0.08,
    0.57,
    0.1625,
    0.6525,
    0.325,
    0.815,
    0.4075,
    0.8975,
    0.245
  ],
  "SoftwareVersions": "syngo_MR_E11",
  "SpacingBetweenSlices": 2.5,
  "StationName": "AWP66112",
  "TotalReadoutTime": 0.0522511,
  "TxRefAmp": 244.569,
  "dcmmeta_affine": [
    [
      -2.4938530921936035,
      -0.09188132733106613,
      0.1491800844669342,
      123.87358093261719
    ],
    [
      -0.10477601736783981,
      2.4881794452667236,
      -0.2190558761358261,
      -102.03785705566406
    ],
    [
      0.14042386412620544,
      0.2247694581747055,
      2.485912322998047,
      -117.39054107666016
    ],
    [
      0.0,
      0.0,
      0.0,
      1.0
    ]
  ],
  "dcmmeta_reorient_transform": [
    [
      0.0,
      -1.0,
      0.0,
      95.0
    ],
    [
      1.0,
      0.0,
      0.0,
      0.0
    ],
    [
      0.0,
      0.0,
      1.0,
      0.0
    ],
    [
      0.0,
      0.0,
      0.0,
      1.0
    ]
  ],
  "dcmmeta_shape": [
    96,
    96,
    48,
    288
  ],
  "dcmmeta_slice_dim": 2,
  "dcmmeta_version": 0.6,
  "global": {
    "const": {
      "AccessionNumber": "A001333",
      "AcquisitionMatrix": [
        96,
        0,
        0,
        96
      ],
      "AngioFlag": "N",
      "BitsAllocated": 16,
      "BitsStored": 12,
      "BodyPartExamined": "BRAIN",
      "Columns": 672,
      "EchoNumbers": 1,
      "EchoTime": 33.0,
      "EchoTrainLength": 96,
      "FlipAngle": 59.0,
      "HighBit": 11,
      "ImageOrientationPatient": [
        0.997541227356,
        0.04191040590784,
        0.05616954336401,
        -0.036752529813,
        0.99527174297112,
        -0.0899077816186
      ],
      "ImagePositionPatient": [
        -806.91271769053,
        -881.11032820896,
        -71.745908918886
      ],
      "ImageType": [
        "ORIGINAL",
        "PRIMARY",
        "FMRI",
        "NONE",
        "ND",
        "NORM",
        "MOSAIC"
      ],
      "ImagedNucleus": "1H",
      "ImagingFrequency": 123.25232,
      "InPlanePhaseEncodingDirection": "COL",
      "MRAcquisitionType": "2D",
      "MagneticFieldStrength": 3.0,
      "Manufacturer": "SIEMENS",
      "ManufacturerModelName": "Prisma",
      "Modality": "MR",
      "NumberOfAverages": 1.0,
      "NumberOfPhaseEncodingSteps": 96,
      "PercentPhaseFieldOfView": 100.0,
      "PercentSampling": 100.0,
      "PerformedProcedureStepStartTime": "104616.171000",
      "PhotometricInterpretation": "MONOCHROME2",
      "PixelBandwidth": 2365.0,
      "PixelRepresentation": 0,
      "PixelSpacing": [
        2.5,
        2.5
      ],
      "PositionReferenceIndicator": "",
      "ProtocolName": "func_run-02_task-visualmemory",
      "RepetitionTime": 1000.0,
      "Rows": 672,
      "SAR": 0.05057384114452,
      "SamplesPerPixel": 1,
      "ScanOptions": "FS",
      "ScanningSequence": "EP",
      "SequenceName": "*epfid2d1_96",
      "SequenceVariant": "SK",
      "SeriesDescription": "func_run-02_task-visualmemory",
      "SeriesNumber": 15,
      "SeriesTime": "112420.693000",
      "SliceLocation": -100.39644761467,
      "SliceThickness": 2.5,
      "SmallestImagePixelValue": 0,
      "SoftwareVersions": "syngo MR E11",
      "SpacingBetweenSlices": 2.500000048751,
      "SpecificCharacterSet": "ISO_IR 100",
      "StudyID": "2",
      "StudyTime": "104616.033000",
      "TransmitCoilName": "Body",
      "VariableFlipAngleFlag": "N",
      "WindowCenterWidthExplanation": "Algo1",
      "dBdt": 0.0
    },
    "slices": {}
  },
  "time": {
    "samples": {
      "AcquisitionNumber": [
        1,
        2,
        3,
        4,
        5,
        6,
        7,
        8,
        9,
        10,
        11,
        12,
        13,
        14,
        15,
        16,
        17,
        18,
        19,
        20,
        21,
        22,
        23,
        24,
        25,
        26,
        27,
        28,
        29,
        30,
        31,
        32,
        33,
        34,
        35,
        36,
        37,
        38,
        39,
        40,
        41,
        42,
        43,
        44,
        45,
        46,
        47,
        48,
        49,
        50,
        51,
        52,
        53,
        54,
        55,
        56,
        57,
        58,
        59,
        60,
        61,
        62,
        63,
        64,
        65,
        66,
        67,
        68,
        69,
        70,
        71,
        72,
        73,
        74,
        75,
        76,
        77,
        78,
        79,
        80,
        81,
        82,
        83,
        84,
        85,
        86,
        87,
        88,
        89,
        90,
        91,
        92,
        93,
        94,
        95,
        96,
        97,
        98,
        99,
        100,
        101,
        102,
        103,
        104,
        105,
        106,
        107,
        108,
        109,
        110,
        111,
        112,
        113,
        114,
        115,
        116,
        117,
        118,
        119,
        120,
        121,
        122,
        123,
        124,
        125,
        126,
        127,
        128,
        129,
        130,
        131,
        132,
        133,
        134,
        135,
        136,
        137,
        138,
        139,
        140,
        141,
        142,
        143,
        144,
        145,
        146,
        147,
        148,
        149,
        150,
        151,
        152,
        153,
        154,
        155,
        156,
        157,
        158,
        159,
        160,
        161,
        162,
        163,
        164,
        165,
        166,
        167,
        168,
        169,
        170,
        171,
        172,
        173,
        174,
        175,
        176,
        177,
        178,
        179,
        180,
        181,
        182,
        183,
        184,
        185,
        186,
        187,
        188,
        189,
        190,
        191,
        192,
        193,
        194,
        195,
        196,
        197,
        198,
        199,
        200,
        201,
        202,
        203,
        204,
        205,
        206,
        207,
        208,
        209,
        210,
        211,
        212,
        213,
        214,
        215,
        216,
        217,
        218,
        219,
        220,
        221,
        222,
        223,
        224,
        225,
        226,
        227,
        228,
        229,
        230,
        231,
        232,
        233,
        234,
        235,
        236,
        237,
        238,
        239,
        240,
        241,
        242,
        243,
        244,
        245,
        246,
        247,
        248,
        249,
        250,
        251,
        252,
        253,
        254,
        255,
        256,
        257,
        258,
        259,
        260,
        261,
        262,
        263,
        264,
        265,
        266,
        267,
        268,
        269,
        270,
        271,
        272,
        273,
        274,
        275,
        276,
        277,
        278,
        279,
        280,
        281,
        282,
        283,
        284,
        285,
        286,
        287,
        288
      ],
      "AcquisitionTime": [
        "112419.497500",
        "112420.497500",
        "112421.497500",
        "112422.497500",
        "112423.497500",
        "112424.497500",
        "112425.497500",
        "112426.497500",
        "112427.497500",
        "112428.497500",
        "112429.497500",
        "112430.497500",
        "112431.497500",
        "112432.497500",
        "112433.497500",
        "112434.497500",
        "112435.497500",
        "112436.497500",
        "112437.497500",
        "112438.497500",
        "112439.497500",
        "112440.497500",
        "112441.497500",
        "112442.497500",
        "112443.497500",
        "112444.497500",
        "112445.497500",
        "112446.497500",
        "112447.497500",
        "112448.497500",
        "112449.497500",
        "112450.497500",
        "112451.497500",
        "112452.497500",
        "112453.497500",
        "112454.497500",
        "112455.497500",
        "112456.497500",
        "112457.497500",
        "112458.497500",
        "112459.497500",
        "112500.497500",
        "112501.497500",
        "112502.497500",
        "112503.497500",
        "112504.497500",
        "112505.497500",
        "112506.497500",
        "112507.497500",
        "112508.497500",
        "112509.497500",
        "112510.497500",
        "112511.497500",
        "112512.497500",
        "112513.497500",
        "112514.497500",
        "112515.497500",
        "112516.497500",
        "112517.497500",
        "112518.497500",
        "112519.497500",
        "112520.497500",
        "112521.497500",
        "112522.497500",
        "112523.497500",
        "112524.497500",
        "112525.497500",
        "112526.497500",
        "112527.497500",
        "112528.497500",
        "112529.497500",
        "112530.497500",
        "112531.497500",
        "112532.497500",
        "112533.497500",
        "112534.497500",
        "112535.497500",
        "112536.497500",
        "112537.497500",
        "112538.497500",
        "112539.497500",
        "112540.497500",
        "112541.497500",
        "112542.497500",
        "112543.497500",
        "112544.497500",
        "112545.497500",
        "112546.497500",
        "112547.497500",
        "112548.497500",
        "112549.497500",
        "112550.497500",
        "112551.497500",
        "112552.497500",
        "112553.497500",
        "112554.497500",
        "112555.497500",
        "112556.497500",
        "112557.497500",
        "112558.497500",
        "112559.497500",
        "112600.497500",
        "112601.497500",
        "112602.497500",
        "112603.497500",
        "112604.497500",
        "112605.497500",
        "112606.497500",
        "112607.497500",
        "112608.497500",
        "112609.497500",
        "112610.497500",
        "112611.497500",
        "112612.497500",
        "112613.497500",
        "112614.497500",
        "112615.497500",
        "112616.497500",
        "112617.497500",
        "112618.497500",
        "112619.497500",
        "112620.497500",
        "112621.497500",
        "112622.497500",
        "112623.497500",
        "112624.497500",
        "112625.497500",
        "112626.497500",
        "112627.497500",
        "112628.497500",
        "112629.497500",
        "112630.497500",
        "112631.497500",
        "112632.497500",
        "112633.497500",
        "112634.497500",
        "112635.497500",
        "112636.497500",
        "112637.497500",
        "112638.497500",
        "112639.497500",
        "112640.497500",
        "112641.497500",
        "112642.497500",
        "112643.497500",
        "112644.497500",
        "112645.497500",
        "112646.497500",
        "112647.497500",
        "112648.497500",
        "112649.497500",
        "112650.497500",
        "112651.497500",
        "112652.497500",
        "112653.497500",
        "112654.497500",
        "112655.497500",
        "112656.497500",
        "112657.497500",
        "112658.497500",
        "112659.497500",
        "112700.497500",
        "112701.497500",
        "112702.497500",
        "112703.497500",
        "112704.497500",
        "112705.497500",
        "112706.497500",
        "112707.497500",
        "112708.497500",
        "112709.497500",
        "112710.497500",
        "112711.497500",
        "112712.497500",
        "112713.497500",
        "112714.497500",
        "112715.497500",
        "112716.497500",
        "112717.497500",
        "112718.497500",
        "112719.497500",
        "112720.497500",
        "112721.497500",
        "112722.497500",
        "112723.497500",
        "112724.497500",
        "112725.497500",
        "112726.497500",
        "112727.497500",
        "112728.497500",
        "112729.497500",
        "112730.497500",
        "112731.497500",
        "112732.497500",
        "112733.497500",
        "112734.497500",
        "112735.497500",
        "112736.497500",
        "112737.497500",
        "112738.497500",
        "112739.497500",
        "112740.497500",
        "112741.497500",
        "112742.497500",
        "112743.497500",
        "112744.497500",
        "112745.497500",
        "112746.497500",
        "112747.497500",
        "112748.497500",
        "112749.497500",
        "112750.497500",
        "112751.497500",
        "112752.497500",
        "112753.497500",
        "112754.497500",
        "112755.497500",
        "112756.497500",
        "112757.497500",
        "112758.497500",
        "112759.497500",
        "112800.497500",
        "112801.497500",
        "112802.497500",
        "112803.497500",
        "112804.497500",
        "112805.497500",
        "112806.497500",
        "112807.497500",
        "112808.497500",
        "112809.497500",
        "112810.497500",
        "112811.497500",
        "112812.497500",
        "112813.497500",
        "112814.497500",
        "112815.497500",
        "112816.497500",
        "112817.497500",
        "112818.497500",
        "112819.497500",
        "112820.497500",
        "112821.497500",
        "112822.497500",
        "112823.497500",
        "112824.497500",
        "112825.497500",
        "112826.497500",
        "112827.497500",
        "112828.497500",
        "112829.497500",
        "112830.497500",
        "112831.497500",
        "112832.497500",
        "112833.497500",
        "112834.497500",
        "112835.497500",
        "112836.497500",
        "112837.497500",
        "112838.497500",
        "112839.497500",
        "112840.497500",
        "112841.497500",
        "112842.497500",
        "112843.497500",
        "112844.497500",
        "112845.497500",
        "112846.497500",
        "112847.497500",
        "112848.497500",
        "112849.497500",
        "112850.497500",
        "112851.497500",
        "112852.497500",
        "112853.497500",
        "112854.497500",
        "112855.497500",
        "112856.497500",
        "112857.497500",
        "112858.497500",
        "112859.497500",
        "112900.497500",
        "112901.497500",
        "112902.497500",
        "112903.497500",
        "112904.497500",
        "112905.497500",
        "112906.497500"
      ],
      "ContentTime": [
        "112420.697000",
        "112421.589000",
        "112422.577000",
        "112423.576000",
        "112424.577000",
        "112425.577000",
        "112426.577000",
        "112427.603000",
        "112428.642000",
        "112429.567000",
        "112430.563000",
        "112431.561000",
        "112432.564000",
        "112433.590000",
        "112434.572000",
        "112435.577000",
        "112436.548000",
        "112437.582000",
        "112438.549000",
        "112439.619000",
        "112440.592000",
        "112441.575000",
        "112442.610000",
        "112443.549000",
        "112444.569000",
        "112445.596000",
        "112446.587000",
        "112447.549000",
        "112448.580000",
        "112449.563000",
        "112450.590000",
        "112451.533000",
        "112452.567000",
        "112453.590000",
        "112454.547000",
        "112455.569000",
        "112456.653000",
        "112457.573000",
        "112458.592000",
        "112459.561000",
        "112500.594000",
        "112501.567000",
        "112502.592000",
        "112503.598000",
        "112504.553000",
        "112505.587000",
        "112506.554000",
        "112507.582000",
        "112508.595000",
        "112509.579000",
        "112510.576000",
        "112511.603000",
        "112512.555000",
        "112513.557000",
        "112514.561000",
        "112515.568000",
        "112516.569000",
        "112517.559000",
        "112518.577000",
        "112519.555000",
        "112520.562000",
        "112521.614000",
        "112522.540000",
        "112523.584000",
        "112524.573000",
        "112525.600000",
        "112526.572000",
        "112527.573000",
        "112528.595000",
        "112529.588000",
        "112530.587000",
        "112531.590000",
        "112532.529000",
        "112533.576000",
        "112534.564000",
        "112535.579000",
        "112536.582000",
        "112537.579000",
        "112538.584000",
        "112539.597000",
        "112540.575000",
        "112541.561000",
        "112542.579000",
        "112543.548000",
        "112544.632000",
        "112545.600000",
        "112546.560000",
        "112547.610000",
        "112548.560000",
        "112549.569000",
        "112550.584000",
        "112551.585000",
        "112552.561000",
        "112553.570000",
        "112554.544000",
        "112555.580000",
        "112556.584000",
        "112557.570000",
        "112558.606000",
        "112559.594000",
        "112600.643000",
        "112601.594000",
        "112602.564000",
        "112603.538000",
        "112604.580000",
        "112605.600000",
        "112606.583000",
        "112607.578000",
        "112608.587000",
        "112609.584000",
        "112610.565000",
        "112611.579000",
        "112612.536000",
        "112613.589000",
        "112614.586000",
        "112615.610000",
        "112616.577000",
        "112617.614000",
        "112618.614000",
        "112619.614000",
        "112620.564000",
        "112621.570000",
        "112622.595000",
        "112623.586000",
        "112624.623000",
        "112625.583000",
        "112626.606000",
        "112627.578000",
        "112628.585000",
        "112629.616000",
        "112630.573000",
        "112631.578000",
        "112632.592000",
        "112633.573000",
        "112634.582000",
        "112635.647000",
        "112636.579000",
        "112637.563000",
        "112638.583000",
        "112639.638000",
        "112640.623000",
        "112641.583000",
        "112642.585000",
        "112643.573000",
        "112644.576000",
        "112645.579000",
        "112646.595000",
        "112647.593000",
        "112648.576000",
        "112649.558000",
        "112650.598000",
        "112651.585000",
        "112652.587000",
        "112653.632000",
        "112654.622000",
        "112655.621000",
        "112656.683000",
        "112657.640000",
        "112658.565000",
        "112659.570000",
        "112700.565000",
        "112701.597000",
        "112702.598000",
        "112703.542000",
        "112704.572000",
        "112705.585000",
        "112706.612000",
        "112707.585000",
        "112708.581000",
        "112709.565000",
        "112710.587000",
        "112711.573000",
        "112712.576000",
        "112713.594000",
        "112714.577000",
        "112715.579000",
        "112716.569000",
        "112717.578000",
        "112718.566000",
        "112719.581000",
        "112720.569000",
        "112721.621000",
        "112722.550000",
        "112723.569000",
        "112724.615000",
        "112725.574000",
        "112726.573000",
        "112727.590000",
        "112728.598000",
        "112729.593000",
        "112730.550000",
        "112731.585000",
        "112732.567000",
        "112733.593000",
        "112734.565000",
        "112735.579000",
        "112736.572000",
        "112737.572000",
        "112738.582000",
        "112739.538000",
        "112740.566000",
        "112741.576000",
        "112742.611000",
        "112743.570000",
        "112744.569000",
        "112745.576000",
        "112746.566000",
        "112747.604000",
        "112748.551000",
        "112749.580000",
        "112750.557000",
        "112751.586000",
        "112752.580000",
        "112753.591000",
        "112754.574000",
        "112755.579000",
        "112756.641000",
        "112757.617000",
        "112758.551000",
        "112759.587000",
        "112800.570000",
        "112801.606000",
        "112802.630000",
        "112803.577000",
        "112804.588000",
        "112805.575000",
        "112806.580000",
        "112807.566000",
        "112808.580000",
        "112809.597000",
        "112810.598000",
        "112811.581000",
        "112812.574000",
        "112813.593000",
        "112814.558000",
        "112815.612000",
        "112816.559000",
        "112817.564000",
        "112818.573000",
        "112819.581000",
        "112820.559000",
        "112821.564000",
        "112822.578000",
        "112823.605000",
        "112824.590000",
        "112825.567000",
        "112826.569000",
        "112827.567000",
        "112828.578000",
        "112829.558000",
        "112830.541000",
        "112831.621000",
        "112832.568000",
        "112833.568000",
        "112834.564000",
        "112835.612000",
        "112836.584000",
        "112837.551000",
        "112838.567000",
        "112839.591000",
        "112840.593000",
        "112841.574000",
        "112842.652000",
        "112843.583000",
        "112844.563000",
        "112845.591000",
        "112846.580000",
        "112847.580000",
        "112848.641000",
        "112849.571000",
        "112850.592000",
        "112851.568000",
        "112852.614000",
        "112853.573000",
        "112854.553000",
        "112855.572000",
        "112856.578000",
        "112857.574000",
        "112858.566000",
        "112859.588000",
        "112900.580000",
        "112901.588000",
        "112902.572000",
        "112903.601000",
        "112904.565000",
        "112905.585000",
        "112906.592000",
        "112907.584000"
      ],
      "InstanceCreationTime": [
        "112420.697000",
        "112421.589000",
        "112422.577000",
        "112423.576000",
        "112424.577000",
        "112425.577000",
        "112426.577000",
        "112427.603000",
        "112428.642000",
        "112429.567000",
        "112430.563000",
        "112431.561000",
        "112432.564000",
        "112433.590000",
        "112434.572000",
        "112435.577000",
        "112436.548000",
        "112437.582000",
        "112438.549000",
        "112439.619000",
        "112440.592000",
        "112441.575000",
        "112442.610000",
        "112443.549000",
        "112444.569000",
        "112445.596000",
        "112446.587000",
        "112447.549000",
        "112448.580000",
        "112449.563000",
        "112450.590000",
        "112451.533000",
        "112452.567000",
        "112453.590000",
        "112454.547000",
        "112455.569000",
        "112456.653000",
        "112457.573000",
        "112458.592000",
        "112459.561000",
        "112500.594000",
        "112501.567000",
        "112502.592000",
        "112503.598000",
        "112504.553000",
        "112505.587000",
        "112506.554000",
        "112507.582000",
        "112508.595000",
        "112509.579000",
        "112510.576000",
        "112511.603000",
        "112512.555000",
        "112513.557000",
        "112514.561000",
        "112515.568000",
        "112516.569000",
        "112517.559000",
        "112518.577000",
        "112519.555000",
        "112520.562000",
        "112521.614000",
        "112522.540000",
        "112523.584000",
        "112524.573000",
        "112525.600000",
        "112526.572000",
        "112527.573000",
        "112528.595000",
        "112529.588000",
        "112530.587000",
        "112531.590000",
        "112532.529000",
        "112533.576000",
        "112534.564000",
        "112535.579000",
        "112536.582000",
        "112537.579000",
        "112538.584000",
        "112539.597000",
        "112540.575000",
        "112541.561000",
        "112542.579000",
        "112543.548000",
        "112544.632000",
        "112545.600000",
        "112546.560000",
        "112547.610000",
        "112548.560000",
        "112549.569000",
        "112550.584000",
        "112551.585000",
        "112552.561000",
        "112553.570000",
        "112554.544000",
        "112555.580000",
        "112556.584000",
        "112557.570000",
        "112558.606000",
        "112559.594000",
        "112600.643000",
        "112601.594000",
        "112602.564000",
        "112603.538000",
        "112604.580000",
        "112605.600000",
        "112606.583000",
        "112607.578000",
        "112608.587000",
        "112609.584000",
        "112610.565000",
        "112611.579000",
        "112612.536000",
        "112613.589000",
        "112614.586000",
        "112615.610000",
        "112616.577000",
        "112617.614000",
        "112618.614000",
        "112619.614000",
        "112620.564000",
        "112621.570000",
        "112622.595000",
        "112623.586000",
        "112624.623000",
        "112625.583000",
        "112626.606000",
        "112627.578000",
        "112628.585000",
        "112629.616000",
        "112630.573000",
        "112631.578000",
        "112632.592000",
        "112633.573000",
        "112634.582000",
        "112635.647000",
        "112636.579000",
        "112637.563000",
        "112638.583000",
        "112639.638000",
        "112640.623000",
        "112641.583000",
        "112642.585000",
        "112643.573000",
        "112644.576000",
        "112645.579000",
        "112646.595000",
        "112647.593000",
        "112648.576000",
        "112649.558000",
        "112650.598000",
        "112651.585000",
        "112652.587000",
        "112653.632000",
        "112654.622000",
        "112655.621000",
        "112656.683000",
        "112657.640000",
        "112658.565000",
        "112659.570000",
        "112700.565000",
        "112701.597000",
        "112702.598000",
        "112703.542000",
        "112704.572000",
        "112705.585000",
        "112706.612000",
        "112707.585000",
        "112708.581000",
        "112709.565000",
        "112710.587000",
        "112711.573000",
        "112712.576000",
        "112713.594000",
        "112714.577000",
        "112715.579000",
        "112716.569000",
        "112717.578000",
        "112718.566000",
        "112719.581000",
        "112720.569000",
        "112721.621000",
        "112722.550000",
        "112723.569000",
        "112724.615000",
        "112725.574000",
        "112726.573000",
        "112727.590000",
        "112728.598000",
        "112729.593000",
        "112730.550000",
        "112731.585000",
        "112732.567000",
        "112733.593000",
        "112734.565000",
        "112735.579000",
        "112736.572000",
        "112737.572000",
        "112738.582000",
        "112739.538000",
        "112740.566000",
        "112741.576000",
        "112742.611000",
        "112743.570000",
        "112744.569000",
        "112745.576000",
        "112746.566000",
        "112747.604000",
        "112748.551000",
        "112749.580000",
        "112750.557000",
        "112751.586000",
        "112752.580000",
        "112753.591000",
        "112754.574000",
        "112755.579000",
        "112756.641000",
        "112757.617000",
        "112758.551000",
        "112759.587000",
        "112800.570000",
        "112801.606000",
        "112802.630000",
        "112803.577000",
        "112804.588000",
        "112805.575000",
        "112806.580000",
        "112807.566000",
        "112808.580000",
        "112809.597000",
        "112810.598000",
        "112811.581000",
        "112812.574000",
        "112813.593000",
        "112814.558000",
