{
  "AcquisitionMatrixPE": 96,
  "AcquisitionNumber": 1,
  "AcquisitionTime": "20:38:30.192500",
  "BandwidthPerPixelPhaseEncode": 18.939,
  "BaseResolution": 96,
  "BodyPartExamined": "BRAIN",
  "ConsistencyInfo": "N4_VE11C_LATEST_20160120",
  "ConversionSoftware": "dcm2niix",
  "ConversionSoftwareVersion": "v1.0.20171215 (OpenJPEG build) GCC6.3.0",
  "DerivedVendorReportedEchoSpacing": 0.000550011,
  "DeviceSerialNumber": "66112",
  "DwellTime": 2.2e-06,
  "EchoTime": 0.033,
  "EchoTrainLength": 96,
  "EffectiveEchoSpacing": 0.000550011,
  "FlipAngle": 59,
  "ImageOrientationPatientDICOM": [0.999911, 0.0105439, -0.00812342, -0.010646, 0.999864, -0.0126262],
  "ImageType": [
    "ORIGINAL",
    "PRIMARY",
    "FMRI",
    "NONE",
    "ND",
    "NORM",
    "MOSAIC"
],
  "InPlanePhaseEncodingDirectionDICOM": "COL",
  "InstitutionAddress": "Maynard_3_Hanover_NH_US_03755",
  "InstitutionName": "Dartmouth_College_-_PBS",
  "InstitutionalDepartmentName": "Department",
  "MRAcquisitionType": "2D",
  "MagneticFieldStrength": 3,
  "Manufacturer": "Siemens",
  "ManufacturersModelName": "Prisma",
  "Modality": "MR",
  "MultibandAccelerationFactor": 4,
  "PartialFourier": 1,
  "PatientPosition": "HFS",
  "PercentPhaseFOV": 100,
  "PhaseEncodingDirection": "j-",
  "PhaseEncodingSteps": 96,
  "PhaseResolution": 1,
  "PixelBandwidth": 2365,
  "ProcedureStepDescription": "Gobbini_Matteo_1038_hyperface",
  "ProtocolName": "func_run-04_task-visualmemory",
  "PulseSequenceDetails": "%SiemensSeq%_ep2d_bold",
  "ReceiveCoilActiveElements": "HEA;HEP",
  "ReceiveCoilName": "Head_32",
  "ReconMatrixPE": 96,
  "RepetitionTime": 1,
  "SAR": 0.0459575,
  "ScanOptions": "FS",
  "ScanningSequence": "EP",
  "SequenceName": "_epfid2d1_96",
  "SequenceVariant": "SK",
  "SeriesDescription": "func_run-04_task-visualmemory",
  "SeriesNumber": 28,
  "ShimSetting": [4149, -7784, -7355, 907, -111, -325, 309, 62],
  "SliceThickness": 2.5,
  "SliceTiming": [0.735, 0, 0.49, 0.0825, 0.5725, 0.165, 0.655, 0.3275, 0.8175, 0.41, 0.9, 0.245, 0.735, 0, 0.49, 0.0825, 0.5725, 0.165, 0.655, 0.3275, 0.8175, 0.41, 0.9, 0.245, 0.735, 0, 0.49, 0.0825, 0.5725, 0.165, 0.655, 0.3275, 0.8175, 0.41, 0.9, 0.245, 0.735, 0, 0.49, 0.0825, 0.5725, 0.165, 0.655, 0.3275, 0.8175, 0.41, 0.9, 0.245],
  "SoftwareVersions": "syngo_MR_E11",
  "SpacingBetweenSlices": 2.5,
  "StationName": "AWP66112",
  "TotalReadoutTime": 0.0522511,
  "TxRefAmp": 230.503,
  "dcmmeta_affine": [
    [-2.4997785091400146, -0.026614926755428314, -0.01997295394539833, 122.31197357177734],
    [-0.026359742507338524, 2.4996590614318848, -0.03177902474999428, -106.65825653076172],
    [-0.02030854858458042, 0.03156561404466629, 2.499718189239502, -73.95500946044922],
    [0.0, 0.0, 0.0, 1.0]
],
  "dcmmeta_reorient_transform": [
    [0.0, -1.0, 0.0, 95.0],
    [1.0, 0.0, 0.0, 0.0],
    [0.0, 0.0, 1.0, 0.0],
    [0.0, 0.0, 0.0, 1.0]
],
  "dcmmeta_shape": [96, 96, 48, 288],
  "dcmmeta_slice_dim": 2,
  "dcmmeta_version": 0.6,
  "global": {
    "const": {
      "AccessionNumber": "A001315",
      "AcquisitionMatrix": [96, 0, 0, 96],
      "AngioFlag": "N",
      "BitsAllocated": 16,
      "BitsStored": 12,
      "BodyPartExamined": "BRAIN",
      "Columns": 672,
      "EchoNumbers": 1,
      "EchoTime": 33.0,
      "EchoTrainLength": 96,
      "FlipAngle": 59.0,
      "HighBit": 11,
      "ImageOrientationPatient": [0.99991141422033, 0.01054389702346, -0.0081234196899, -0.0106459703329, 0.99986361131165, -0.0126262460964],
      "ImagePositionPatient": [-832.05467248473, -858.30275850906, -56.016516396211],
      "ImageType": [
        "ORIGINAL",
        "PRIMARY",
        "FMRI",
        "NONE",
        "ND",
        "NORM",
        "MOSAIC"
],
      "ImagedNucleus": "1H",
      "ImagingFrequency": 123.252354,
      "InPlanePhaseEncodingDirection": "COL",
      "MRAcquisitionType": "2D",
      "MagneticFieldStrength": 3.0,
      "Manufacturer": "SIEMENS",
      "ManufacturerModelName": "Prisma",
      "Modality": "MR",
      "NumberOfAverages": 1.0,
      "NumberOfPhaseEncodingSteps": 96,
      "PercentPhaseFieldOfView": 100.0,
      "PercentSampling": 100.0,
      "PerformedProcedureStepStartTime": "200647.584000",
      "PhotometricInterpretation": "MONOCHROME2",
      "PixelBandwidth": 2365.0,
      "PixelRepresentation": 0,
      "PixelSpacing": [2.5, 2.5],
      "PositionReferenceIndicator": "",
      "ProtocolName": "func_run-04_task-visualmemory",
      "RepetitionTime": 1000.0,
      "Rows": 672,
      "SAR": 0.04595754774131,
      "SamplesPerPixel": 1,
      "ScanOptions": "FS",
      "ScanningSequence": "EP",
      "SequenceName": "*epfid2d1_96",
      "SequenceVariant": "SK",
      "SeriesDescription": "func_run-04_task-visualmemory",
      "SeriesNumber": 28,
      "SeriesTime": "203831.702000",
      "SliceLocation": -73.568048084648,
      "SliceThickness": 2.5,
      "SmallestImagePixelValue": 0,
      "SoftwareVersions": "syngo MR E11",
      "SpacingBetweenSlices": 2.4999999800671,
      "SpecificCharacterSet": "ISO_IR 100",
      "StudyID": "4",
      "StudyTime": "200647.537000",
      "TransmitCoilName": "Body",
      "VariableFlipAngleFlag": "N",
      "WindowCenterWidthExplanation": "Algo1",
      "dBdt": 0.0},
    "slices": {}
  },
  "time": {
    "samples": {
      "AcquisitionNumber": [1, 2, 3, 4, 5, 6, 7, 8, 9, 10, 11, 12, 13, 14, 15, 16, 17, 18, 19, 20, 21, 22, 23, 24, 25, 26, 27, 28, 29, 30, 31, 32, 33, 34, 35, 36, 37, 38, 39, 40, 41, 42, 43, 44, 45, 46, 47, 48, 49, 50, 51, 52, 53, 54, 55, 56, 57, 58, 59, 60, 61, 62, 63, 64, 65, 66, 67, 68, 69, 70, 71, 72, 73, 74, 75, 76, 77, 78, 79, 80, 81, 82, 83, 84, 85, 86, 87, 88, 89, 90, 91, 92, 93, 94, 95, 96, 97, 98, 99, 100, 101, 102, 103, 104, 105, 106, 107, 108, 109, 110, 111, 112, 113, 114, 115, 116, 117, 118, 119, 120, 121, 122, 123, 124, 125, 126, 127, 128, 129, 130, 131, 132, 133, 134, 135, 136, 137, 138, 139, 140, 141, 142, 143, 144, 145, 146, 147, 148, 149, 150, 151, 152, 153, 154, 155, 156, 157, 158, 159, 160, 161, 162, 163, 164, 165, 166, 167, 168, 169, 170, 171, 172, 173, 174, 175, 176, 177, 178, 179, 180, 181, 182, 183, 184, 185, 186, 187, 188, 189, 190, 191, 192, 193, 194, 195, 196, 197, 198, 199, 200, 201, 202, 203, 204, 205, 206, 207, 208, 209, 210, 211, 212, 213, 214, 215, 216, 217, 218, 219, 220, 221, 222, 223, 224, 225, 226, 227, 228, 229, 230, 231, 232, 233, 234, 235, 236, 237, 238, 239, 240, 241, 242, 243, 244, 245, 246, 247, 248, 249, 250, 251, 252, 253, 254, 255, 256, 257, 258, 259, 260, 261, 262, 263, 264, 265, 266, 267, 268, 269, 270, 271, 272, 273, 274, 275, 276, 277, 278, 279, 280, 281, 282, 283, 284, 285, 286, 287, 288],
      "AcquisitionTime": ["203830.192500", "203831.192500", "203832.192500", "203833.192500", "203834.192500", "203835.192500", "203836.192500", "203837.192500", "203838.192500", "203839.192500", "203840.192500", "203841.192500", "203842.192500", "203843.192500", "203844.192500", "203845.192500", "203846.192500", "203847.192500", "203848.192500", "203849.192500", "203850.192500", "203851.192500", "203852.192500", "203853.192500", "203854.192500", "203855.192500", "203856.192500", "203857.192500", "203858.192500", "203859.192500", "203900.192500", "203901.192500", "203902.192500", "203903.192500", "203904.192500", "203905.192500", "203906.192500", "203907.192500", "203908.192500", "203909.192500", "203910.192500", "203911.192500", "203912.192500", "203913.192500", "203914.192500", "203915.192500", "203916.192500", "203917.192500", "203918.192500", "203919.192500", "203920.192500", "203921.192500", "203922.192500", "203923.192500", "203924.192500", "203925.192500", "203926.192500", "203927.192500", "203928.192500", "203929.192500", "203930.192500", "203931.192500", "203932.192500", "203933.192500", "203934.192500", "203935.192500", "203936.192500", "203937.192500", "203938.192500", "203939.192500", "203940.192500", "203941.192500", "203942.192500", "203943.192500", "203944.192500", "203945.192500", "203946.192500", "203947.192500", "203948.192500", "203949.192500", "203950.192500", "203951.192500", "203952.192500", "203953.192500", "203954.192500", "203955.192500", "203956.192500", "203957.192500", "203958.192500", "203959.192500", "204000.192500", "204001.192500", "204002.192500", "204003.192500", "204004.192500", "204005.192500", "204006.192500", "204007.192500", "204008.192500", "204009.192500", "204010.192500", "204011.192500", "204012.192500", "204013.192500", "204014.192500", "204015.192500", "204016.192500", "204017.192500", "204018.192500", "204019.192500", "204020.192500", "204021.192500", "204022.192500", "204023.192500", "204024.192500", "204025.192500", "204026.192500", "204027.192500", "204028.192500", "204029.192500", "204030.192500", "204031.192500", "204032.192500", "204033.192500", "204034.192500", "204035.192500", "204036.192500", "204037.192500", "204038.192500", "204039.192500", "204040.192500", "204041.192500", "204042.192500", "204043.192500", "204044.192500", "204045.192500", "204046.192500", "204047.192500", "204048.192500", "204049.192500", "204050.192500", "204051.192500", "204052.192500", "204053.192500", "204054.192500", "204055.192500", "204056.192500", "204057.192500", "204058.192500", "204059.192500", "204100.192500", "204101.192500", "204102.192500", "204103.192500", "204104.192500", "204105.192500", "204106.192500", "204107.192500", "204108.192500", "204109.192500", "204110.192500", "204111.192500", "204112.192500", "204113.192500", "204114.192500", "204115.192500", "204116.192500", "204117.192500", "204118.192500", "204119.192500", "204120.192500", "204121.192500", "204122.192500", "204123.192500", "204124.192500", "204125.192500", "204126.192500", "204127.192500", "204128.192500", "204129.192500", "204130.192500", "204131.192500", "204132.192500", "204133.192500", "204134.192500", "204135.192500", "204136.192500", "204137.192500", "204138.192500", "204139.192500", "204140.192500", "204141.192500", "204142.192500", "204143.192500", "204144.192500", "204145.192500", "204146.192500", "204147.192500", "204148.192500", "204149.192500", "204150.192500", "204151.192500", "204152.192500", "204153.192500", "204154.192500", "204155.192500", "204156.192500", "204157.192500", "204158.192500", "204159.192500", "204200.192500", "204201.192500", "204202.192500", "204203.192500", "204204.192500", "204205.192500", "204206.192500", "204207.192500", "204208.192500", "204209.192500", "204210.192500", "204211.192500", "204212.192500", "204213.192500", "204214.192500", "204215.192500", "204216.192500", "204217.192500", "204218.192500", "204219.192500", "204220.192500", "204221.192500", "204222.192500", "204223.192500", "204224.192500", "204225.192500", "204226.192500", "204227.192500", "204228.192500", "204229.192500", "204230.192500", "204231.192500", "204232.192500", "204233.192500", "204234.192500", "204235.192500", "204236.192500", "204237.192500", "204238.192500", "204239.192500", "204240.192500", "204241.192500", "204242.192500", "204243.192500", "204244.192500", "204245.192500", "204246.192500", "204247.192500", "204248.192500", "204249.192500", "204250.192500", "204251.192500", "204252.192500", "204253.192500", "204254.192500", "204255.192500", "204256.192500", "204257.192500", "204258.192500", "204259.192500", "204300.192500", "204301.192500", "204302.192500", "204303.192500", "204304.192500", "204305.192500", "204306.192500", "204307.192500", "204308.192500", "204309.192500", "204310.192500", "204311.192500", "204312.192500", "204313.192500", "204314.192500", "204315.192500", "204316.192500", "204317.192500"],
      "ContentTime": ["203831.707000", "203832.533000", "203833.569000", "203834.512000", "203835.529000", "203836.521000", "203837.524000", "203838.531000", "203839.542000", "203840.536000", "203841.558000", "203842.510000", "203843.523000", "203844.543000", "203845.509000", "203846.518000", "203847.523000", "203848.478000", "203849.518000", "203850.509000", "203851.550000", "203852.576000", "203853.549000", "203854.525000", "203855.509000", "203856.520000", "203857.621000", "203858.507000", "203859.493000", "203900.516000", "203901.541000", "203902.514000", "203903.508000", "203904.567000", "203905.504000", "203906.528000", "203907.525000", "203908.534000", "203909.505000", "203910.524000", "203911.519000", "203912.519000", "203913.489000", "203914.545000", "203915.535000", "203916.509000", "203917.515000", "203918.550000", "203919.528000", "203920.512000", "203921.500000", "203922.499000", "203923.509000", "203924.502000", "203925.521000", "203926.493000", "203927.528000", "203928.526000", "203929.519000", "203930.528000", "203931.579000", "203932.543000", "203933.506000", "203934.505000", "203935.511000", "203936.519000", "203937.469000", "203938.507000", "203939.517000", "203940.515000", "203941.510000", "203942.529000", "203943.524000", "203944.500000", "203945.506000", "203946.494000", "203947.502000", "203948.494000", "203949.501000", "203950.507000", "203951.519000", "203952.479000", "203953.526000", "203954.511000", "203955.514000", "203956.557000", "203957.528000", "203958.521000", "203959.520000", "204000.509000", "204001.494000", "204002.503000", "204003.514000", "204004.510000", "204005.506000", "204006.538000", "204007.532000", "204008.527000", "204009.499000", "204010.484000", "204011.509000", "204012.566000", "204013.503000", "204014.499000", "204015.512000", "204016.503000", "204017.553000", "204018.552000", "204019.483000", "204020.546000", "204021.524000", "204022.503000", "204023.528000", "204024.555000", "204025.507000", "204026.487000", "204027.526000", "204028.532000", "204029.529000", "204030.524000", "204031.516000", "204032.547000", "204033.534000", "204034.514000", "204035.548000", "204036.543000", "204037.558000", "204038.567000", "204039.510000", "204040.535000", "204041.534000", "204042.492000", "204043.520000", "204044.521000", "204045.512000", "204046.541000", "204047.523000", "204048.526000", "204049.518000", "204050.516000", "204051.498000", "204052.520000", "204053.506000", "204054.528000", "204055.491000", "204056.514000", "204057.502000", "204058.527000", "204059.515000", "204100.508000", "204101.533000", "204102.535000", "204103.535000", "204104.527000", "204105.535000", "204106.557000", "204107.528000", "204108.521000", "204109.554000", "204110.526000", "204111.524000", "204112.493000", "204113.483000", "204114.506000", "204115.495000", "204116.535000", "204117.501000", "204118.518000", "204119.547000", "204120.551000", "204121.519000", "204122.513000", "204123.550000", "204124.519000", "204125.564000", "204126.552000", "204127.529000", "204128.546000", "204129.563000", "204130.525000", "204131.512000", "204132.518000", "204133.540000", "204134.557000", "204135.568000", "204136.531000", "204137.572000", "204138.534000", "204139.518000", "204140.520000", "204141.528000", "204142.522000", "204143.502000", "204144.487000", "204145.503000", "204146.518000", "204147.524000", "204148.512000", "204149.518000", "204150.511000", "204151.550000", "204152.517000", "204153.515000", "204154.523000", "204155.499000", "204156.512000", "204157.548000", "204158.541000", "204159.507000", "204200.514000", "204201.512000", "204202.555000", "204203.505000", "204204.496000", "204205.522000", "204206.501000", "204207.518000", "204208.496000", "204209.510000", "204210.570000", "204211.552000", "204212.527000", "204213.532000", "204214.520000", "204215.499000", "204216.507000", "204217.526000", "204218.523000", "204219.523000", "204220.535000", "204221.566000", "204222.503000", "204223.526000", "204224.523000", "204225.525000", "204226.497000", "204227.582000", "204228.532000", "204229.511000", "204230.509000", "204231.492000", "204232.537000", "204233.515000", "204234.491000", "204235.499000", "204236.527000", "204237.512000", "204238.516000", "204239.506000", "204240.512000", "204241.524000", "204242.521000", "204243.518000", "204244.511000", "204245.500000", "204246.519000", "204247.536000", "204248.531000", "204249.504000", "204250.532000", "204251.554000", "204252.519000", "204253.551000", "204254.508000", "204255.501000", "204256.534000", "204257.491000", "204258.518000", "204259.573000", "204300.509000", "204301.509000", "204302.517000", "204303.547000", "204304.511000", "204305.528000", "204306.514000", "204307.516000", "204308.542000", "204309.537000", "204310.563000", "204311.527000", "204312.519000", "204313.500000", "204314.520000", "204315.510000", "204316.514000", "204317.563000", "204318.550000"],
      "InstanceCreationTime": ["203831.707000", "203832.533000", "203833.569000", "203834.512000", "203835.529000", "203836.521000", "203837.524000", "203838.531000", "203839.542000", "203840.536000", "203841.558000", "203842.510000", "203843.523000", "203844.543000", "203845.509000", "203846.518000", "203847.523000", "203848.478000", "203849.518000", "203850.509000", "203851.550000", "203852.576000", "203853.549000", "203854.525000", "203855.509000", "203856.520000", "203857.621000", "203858.507000", "203859.493000", "203900.516000", "203901.541000", "203902.514000", "203903.508000", "203904.567000", "203905.504000", "203906.528000", "203907.525000", "203908.534000", "203909.505000", "203910.524000", "203911.519000", "203912.519000", "203913.489000", "203914.545000", "203915.535000", "203916.509000", "203917.515000", "203918.550000", "203919.528000", "203920.512000", "203921.500000", "203922.499000", "203923.509000", "203924.502000", "203925.521000", "203926.493000", "203927.528000", "203928.526000", "203929.519000", "203930.528000", "203931.579000", "203932.543000", "203933.506000", "203934.505000", "203935.511000", "203936.519000", "203937.469000", "203938.507000", "203939.517000", "203940.515000", "203941.510000", "203942.529000", "203943.524000", "203944.500000", "203945.506000", "203946.494000", "203947.502000", "203948.494000", "203949.501000", "203950.507000", "203951.519000", "203952.479000", "203953.526000", "203954.511000", "203955.514000", "203956.557000", "203957.528000", "203958.521000", "203959.520000", "204000.509000", "204001.494000", "204002.503000", "204003.514000", "204004.510000", "204005.506000", "204006.538000", "204007.532000", "204008.527000", "204009.499000", "204010.484000", "204011.509000", "204012.566000", "204013.503000", "204014.499000", "204015.512000", "204016.503000", "204017.553000", "204018.552000", "204019.483000", "204020.546000", "204021.524000", "204022.503000", "204023.528000", "204024.555000", "204025.507000", "204026.487000", "204027.526000", "204028.532000", "204029.529000", "204030.524000", "204031.516000", "204032.547000", "204033.534000", "204034.514000", "204035.548000", "204036.543000", "204037.558000", "204038.567000", "204039.510000", "204040.535000", "204041.534000", "204042.492000", "204043.520000", "204044.521000", "204045.512000", "204046.541000", "204047.523000", "204048.526000", "204049.518000", "204050.516000", "204051.498000", "204052.520000", "204053.506000", "204054.528000", "204055.491000", "204056.514000", "204057.502000", "204058.527000", "204059.515000", "204100.508000", "204101.533000", "204102.535000", "204103.535000", "204104.527000", "204105.535000", "204106.557000", "204107.528000", "204108.521000", "204109.554000", "204110.526000", "204111.524000", "204112.493000", "204113.483000", "204114.506000", "204115.495000", "204116.535000", "204117.501000", "204118.518000", "204119.547000", "204120.551000", "204121.519000", "204122.513000", "204123.550000", "204124.519000", "204125.564000", "204126.552000", "204127.529000", "204128.546000", "204129.563000", "204130.525000", "204131.512000", "204132.518000", "204133.540000", "204134.557000", "204135.568000", "204136.531000", "204137.572000", "204138.534000", "204139.518000", "204140.520000", "204141.528000", "204142.522000", "204143.502000", "204144.487000", "204145.503000", "204146.518000", "204147.524000", "204148.512000", "204149.518000", "204150.511000", "204151.550000", "204152.517000", "204153.515000", "204154.523000", "204155.499000", "204156.512000", "204157.548000", "204158.541000", "204159.507000", "204200.514000", "204201.512000", "204202.555000", "204203.505000", "204204.496000", "204205.522000", "204206.501000", "204207.518000", "204208.496000", "204209.510000", "204210.570000", "204211.552000", "204212.527000", "204213.532000", "204214.520000", "204215.499000", "204216.507000", "204217.526000", "204218.523000", "204219.523000", "204220.535000", "204221.566000", "204222.503000", "204223.526000", "204224.523000", "204225.525000", "204226.497000", "204227.582000", "204228.532000", "204229.511000", "204230.509000", "204231.492000", "204232.537000", "204233.515000", "204234.491000", "204235.499000", "204236.527000", "204237.512000", "204238.516000", "204239.506000", "204240.512000", "204241.524000", "204242.521000", "204243.518000", "204244.511000", "204245.500000", "204246.519000", "204247.536000", "204248.531000", "204249.504000", "204250.532000", "204251.554000", "204252.519000", "204253.551000", "204254.508000", "204255.501000", "204256.534000", "204257.491000", "204258.518000", "204259.573000", "204300.509000", "204301.509000", "204302.517000", "204303.547000", "204304.511000", "204305.528000", "204306.514000", "204307.516000", "204308.542000", "204309.537000", "204310.563000", "204311.527000", "204312.519000", "204313.500000", "204314.520000", "204315.510000", "204316.514000", "204317.563000", "204318.550000"],
      "InstanceNumber": [1, 2, 3, 4, 5, 6, 7, 8, 9, 10, 11, 12, 13, 14, 15, 16, 17, 18, 19, 20, 21, 22, 23, 24, 25, 26, 27, 28, 29, 30, 31, 32, 33, 34, 35, 36, 37, 38, 39, 40, 41, 42, 43, 44, 45, 46, 47, 48, 49, 50, 51, 52, 53, 54, 55, 56, 57, 58, 59, 60, 61, 62, 63, 64, 65, 66, 67, 68, 69, 70, 71, 72, 73, 74, 75, 76, 77, 78, 79, 80, 81, 82, 83, 84, 85, 86, 87, 88, 89, 90, 91, 92, 93, 94, 95, 96, 97, 98, 99, 100, 101, 102, 103, 104, 105, 106, 107, 108, 109, 110, 111, 112, 113, 114, 115, 116, 117, 118, 119, 120, 121, 122, 123, 124, 125, 126, 127, 128, 129, 130, 131, 132, 133, 134, 135, 136, 137, 138, 139, 140, 141, 142, 143, 144, 145, 146, 147, 148, 149, 150, 151, 152, 153, 154, 155, 156, 157, 158, 159, 160, 161, 162, 163, 164, 165, 166, 167, 168, 169, 170, 171, 172, 173, 174, 175, 176, 177, 178, 179, 180, 181, 182, 183, 184, 185, 186, 187, 188, 189, 190, 191, 192, 193, 194, 195, 196, 197, 198, 199, 200, 201, 202, 203, 204, 205, 206, 207, 208, 209, 210, 211, 212, 213, 214, 215, 216, 217, 218, 219, 220, 221, 222, 223, 224, 225, 226, 227, 228, 229, 230, 231, 232, 233, 234, 235, 236, 237, 238, 239, 240, 241, 242, 243, 244, 245, 246, 247, 248, 249, 250, 251, 252, 253, 254, 255, 256, 257, 258, 259, 260, 261, 262, 263, 264, 265, 266, 267, 268, 269, 270, 271, 272, 273, 274, 275, 276, 277, 278, 279, 280, 281, 282, 283, 284, 285, 286, 287, 288],
      "LargestImagePixelValue": [835, 733, 840, 744, 849, 845, 736, 673, 675, 650, 731, 842, 685, 633, 667, 726, 634, 669, 696, 672, 843, 687, 677, 656, 647, 730, 672, 648, 667, 659, 737, 677, 708, 691, 644, 629, 670, 721, 644, 681, 751, 685, 822, 895, 730, 699, 928, 736, 822, 687, 636, 859, 725, 747, 662, 700, 774, 663, 652, 734, 695, 683, 892, 688, 667, 688, 624, 692, 658, 680, 795, 680, 654, 778, 664, 698, 665, 662, 712, 652, 986, 686, 654, 649, 660, 631, 710, 689, 913, 671, 895, 692, 680, 642, 653, 706, 630, 752, 742, 671, 788, 698, 635, 669, 688, 829, 781, 716, 648, 655, 655, 658, 630, 813, 662, 914, 900, 670, 657, 638, 682, 675, 729, 701, 809, 650, 661, 655, 652, 703, 705, 654, 926, 1004, 712, 725, 665, 648, 674, 655, 704, 672, 712, 888, 662, 988, 717, 743, 671, 620, 727, 663, 758, 981, 687, 648, 650, 653, 688, 680, 657, 635, 719, 836, 678, 932, 694, 679, 702, 620, 678, 658, 752, 783, 697, 755, 661, 673, 707, 691, 650, 635, 654, 679, 841, 663, 656, 954, 1004, 750, 648, 649, 675, 637, 617, 711, 670, 764, 780, 697, 934, 712, 697, 636, 662, 653, 646, 660, 677, 647, 639, 733, 717, 660, 647, 734, 954, 711, 738, 666, 632, 637, 640, 780, 676, 967, 774, 673, 654, 678, 652, 638, 667, 677, 689, 770, 654, 644, 870, 685, 794, 681, 668, 626, 646, 659, 652, 709, 647, 985, 762, 751, 663, 633, 647, 722, 919, 663, 1033, 772, 675, 640, 658, 648, 664, 644, 707, 661, 678, 638, 646, 635, 658, 677, 901, 726, 749, 856, 730, 660, 811, 661, 659, 646, 655, 671, 732, 734],
      "WindowCenter": [331.0, 329.0, 329.0, 328.0, 329.0, 329.0, 328.0, 327.0, 327.0, 327.0, 327.0, 328.0, 326.0, 325.0, 326.0, 327.0, 326.0, 326.0, 327.0, 327.0, 327.0, 325.0, 325.0, 325.0, 325.0, 328.0, 326.0, 326.0, 326.0, 326.0, 327.0, 326.0, 328.0, 327.0, 326.0, 326.0, 326.0, 327.0, 326.0, 327.0, 328.0, 327.0, 329.0, 329.0, 327.0, 327.0, 329.0, 328.0, 328.0, 327.0, 327.0, 329.0, 327.0, 327.0, 326.0, 326.0, 327.0, 326.0, 326.0, 327.0, 327.0, 326.0, 329.0, 326.0, 325.0, 325.0, 325.0, 325.0, 325.0, 326.0, 327.0, 326.0, 327.0, 328.0, 327.0, 327.0, 327.0, 327.0, 328.0, 327.0, 330.0, 327.0, 327.0, 327.0, 326.0, 327.0, 328.0, 327.0, 329.0, 326.0, 329.0, 327.0, 326.0, 326.0, 326.0, 326.0, 326.0, 328.0, 328.0, 327.0, 328.0, 327.0, 326.0, 326.0, 327.0, 327.0, 328.0, 327.0, 326.0, 327.0, 326.0, 327.0, 326.0, 328.0, 326.0, 328.0, 328.0, 326.0, 326.0, 326.0, 326.0, 326.0, 327.0, 326.0, 327.0, 326.0, 326.0, 327.0, 326.0, 327.0, 326.0, 326.0, 329.0, 329.0, 326.0, 326.0, 326.0, 326.0, 327.0, 327.0, 328.0, 328.0, 328.0, 330.0, 327.0, 330.0, 328.0, 328.0, 327.0, 326.0, 327.0, 327.0, 328.0, 329.0, 326.0, 326.0, 326.0, 327.0, 327.0, 327.0, 327.0, 327.0, 329.0, 329.0, 327.0, 329.0, 327.0, 326.0, 327.0, 325.0, 326.0, 326.0, 328.0, 328.0, 327.0, 328.0, 327.0, 328.0, 329.0, 329.0, 327.0, 327.0, 327.0, 328.0, 330.0, 327.0, 328.0, 331.0, 330.0, 328.0, 327.0, 327.0, 327.0, 326.0, 326.0, 327.0, 326.0, 328.0, 328.0, 326.0, 329.0, 326.0, 326.0, 326.0, 327.0, 326.0, 327.0, 326.0, 326.0, 326.0, 327.0, 328.0, 328.0, 327.0, 328.0, 329.0, 331.0, 329.0, 329.0, 328.0, 327.0, 327.0, 327.0, 329.0, 327.0, 330.0, 329.0, 327.0, 327.0, 327.0, 327.0, 327.0, 327.0, 327.0, 327.0, 328.0, 327.0, 327.0, 330.0, 328.0, 329.0, 328.0, 327.0, 326.0, 326.0, 327.0, 328.0, 329.0, 328.0, 331.0, 328.0, 328.0, 326.0, 326.0, 326.0, 327.0, 329.0, 325.0, 329.0, 327.0, 326.0, 326.0, 325.0, 326.0, 327.0, 327.0, 328.0, 328.0, 328.0, 327.0, 327.0, 327.0, 327.0, 327.0, 330.0, 328.0, 328.0, 329.0, 328.0, 327.0, 329.0, 327.0, 327.0, 327.0, 327.0, 328.0, 329.0, 329.0],
      "WindowWidth": [715.0, 711.0, 711.0, 709.0, 709.0, 709.0, 708.0, 707.0, 707.0, 707.0, 707.0, 707.0, 705.0, 704.0, 704.0, 706.0, 704.0, 704.0, 706.0, 706.0, 707.0, 704.0, 704.0, 704.0, 704.0, 707.0, 705.0, 704.0, 705.0, 704.0, 706.0, 706.0, 708.0, 707.0, 705.0, 705.0, 705.0, 707.0, 706.0, 707.0, 709.0, 707.0, 710.0, 709.0, 707.0, 707.0, 710.0, 707.0, 708.0, 707.0, 708.0, 710.0, 706.0, 706.0, 704.0, 705.0, 706.0, 704.0, 706.0, 707.0, 706.0, 706.0, 709.0, 705.0, 703.0, 704.0, 703.0, 704.0, 704.0, 704.0, 707.0, 705.0, 707.0, 709.0, 707.0, 707.0, 707.0, 707.0, 708.0, 707.0, 711.0, 707.0, 706.0, 706.0, 706.0, 706.0, 708.0, 707.0, 709.0, 706.0, 709.0, 707.0, 705.0, 704.0, 704.0, 705.0, 705.0, 708.0, 707.0, 707.0, 709.0, 707.0, 705.0, 706.0, 707.0, 707.0, 707.0, 706.0, 706.0, 707.0, 705.0, 707.0, 706.0, 708.0, 704.0, 707.0, 707.0, 704.0, 704.0, 704.0, 705.0, 706.0, 706.0, 705.0, 707.0, 706.0, 706.0, 707.0, 706.0, 707.0, 706.0, 704.0, 709.0, 708.0, 705.0, 705.0, 704.0, 705.0, 707.0, 707.0, 708.0, 708.0, 709.0, 711.0, 707.0, 711.0, 708.0, 707.0, 707.0, 705.0, 707.0, 706.0, 708.0, 710.0, 706.0, 705.0, 706.0, 706.0, 707.0, 707.0, 707.0, 708.0, 709.0, 710.0, 707.0, 710.0, 707.0, 705.0, 706.0, 704.0, 705.0, 705.0, 708.0, 708.0, 707.0, 709.0, 707.0, 708.0, 710.0, 710.0, 708.0, 708.0, 708.0, 709.0, 711.0, 708.0, 709.0, 714.0, 712.0, 708.0, 706.0, 707.0, 707.0, 706.0, 705.0, 707.0, 706.0, 707.0, 707.0, 706.0, 709.0, 706.0, 706.0, 705.0, 706.0, 706.0, 706.0, 706.0, 706.0, 705.0, 706.0, 708.0, 708.0, 707.0, 709.0, 711.0, 713.0, 710.0, 711.0, 709.0, 707.0, 706.0, 707.0, 710.0, 708.0, 711.0, 709.0, 707.0, 707.0, 707.0, 707.0, 707.0, 708.0, 707.0, 707.0, 709.0, 707.0, 708.0, 712.0, 709.0, 710.0, 709.0, 707.0, 706.0, 706.0, 707.0, 709.0, 710.0, 709.0, 714.0, 709.0, 708.0, 706.0, 705.0, 704.0, 706.0, 709.0, 704.0, 710.0, 706.0, 705.0, 704.0, 704.0, 705.0, 707.0, 707.0, 709.0, 708.0, 708.0, 708.0, 707.0, 707.0, 707.0, 707.0, 710.0, 708.0, 708.0, 709.0, 708.0, 707.0, 710.0, 707.0, 707.0, 707.0, 707.0, 708.0, 711.0, 711.0]
    },
    "slices": {}
  }
}