{
  "AcquisitionMatrixPE": 96,
  "AcquisitionNumber": 1,
  "AcquisitionTime": "20:54:7.007500",
  "BandwidthPerPixelPhaseEncode": 18.939,
  "BaseResolution": 96,
  "BodyPartExamined": "BRAIN",
  "ConsistencyInfo": "N4_VE11C_LATEST_20160120",
  "ConversionSoftware": "dcm2niix",
  "ConversionSoftwareVersion": "v1.0.20171215 (OpenJPEG build) GCC6.3.0",
  "DerivedVendorReportedEchoSpacing": 0.000550011,
  "DeviceSerialNumber": "66112",
  "DwellTime": 2.2e-06,
  "EchoTime": 0.033,
  "EchoTrainLength": 96,
  "EffectiveEchoSpacing": 0.000550011,
  "FlipAngle": 59,
  "ImageOrientationPatientDICOM": [
    0.999911,
    0.0105439,
    -0.00812342,
    -0.010646,
    0.999864,
    -0.0126262
  ],
  "ImageType": [
    "ORIGINAL",
    "PRIMARY",
    "FMRI",
    "NONE",
    "ND",
    "NORM",
    "MOSAIC"
  ],
  "InPlanePhaseEncodingDirectionDICOM": "COL",
  "InstitutionAddress": "Maynard_3_Hanover_NH_US_03755",
  "InstitutionName": "Dartmouth_College_-_PBS",
  "InstitutionalDepartmentName": "Department",
  "MRAcquisitionType": "2D",
  "MagneticFieldStrength": 3,
  "Manufacturer": "Siemens",
  "ManufacturersModelName": "Prisma",
  "Modality": "MR",
  "MultibandAccelerationFactor": 4,
  "PatientPosition": "HFS",
  "PercentPhaseFOV": 100,
  "PhaseEncodingDirection": "j-",
  "PhaseEncodingSteps": 96,
  "PhaseResolution": 1,
  "PixelBandwidth": 2365,
  "ProcedureStepDescription": "Gobbini_Matteo_1038_hyperface",
  "ProtocolName": "func_run-07_task-visualmemory",
  "PulseSequenceDetails": "%SiemensSeq%_ep2d_bold",
  "ReceiveCoilActiveElements": "HEA;HEP",
  "ReceiveCoilName": "Head_32",
  "ReconMatrixPE": 96,
  "RepetitionTime": 1,
  "SAR": 0.0459575,
  "ScanOptions": "FS",
  "ScanningSequence": "EP",
  "SequenceName": "_epfid2d1_96",
  "SequenceVariant": "SK",
  "SeriesDescription": "func_run-07_task-visualmemory",
  "SeriesNumber": 49,
  "ShimSetting": [
    4149,
    -7784,
    -7355,
    907,
    -111,
    -325,
    309,
    62
  ],
  "SliceThickness": 2.5,
  "SliceTiming": [
    0.735,
    0,
    0.49,
    0.0825,
    0.5725,
    0.1625,
    0.6525,
    0.3275,
    0.8175,
    0.4075,
    0.8975,
    0.245,
    0.735,
    0,
    0.49,
    0.0825,
    0.5725,
    0.1625,
    0.6525,
    0.3275,
    0.8175,
    0.4075,
    0.8975,
    0.245,
    0.735,
    0,
    0.49,
    0.0825,
    0.5725,
    0.1625,
    0.6525,
    0.3275,
    0.8175,
    0.4075,
    0.8975,
    0.245,
    0.735,
    0,
    0.49,
    0.0825,
    0.5725,
    0.1625,
    0.6525,
    0.3275,
    0.8175,
    0.4075,
    0.8975,
    0.245
  ],
  "SoftwareVersions": "syngo_MR_E11",
  "SpacingBetweenSlices": 2.5,
  "StationName": "AWP66112",
  "TotalReadoutTime": 0.0522511,
  "TxRefAmp": 230.503,
  "dcmmeta_affine": [
    [
      -2.4997785091400146,
      -0.026614926755428314,
      -0.01997295394539833,
      122.31197357177734
    ],
    [
      -0.026359742507338524,
      2.4996590614318848,
      -0.03177902474999428,
      -106.65825653076172
    ],
    [
      -0.02030854858458042,
      0.03156561404466629,
      2.499718189239502,
      -73.95500946044922
    ],
    [
      0.0,
      0.0,
      0.0,
      1.0
    ]
  ],
  "dcmmeta_reorient_transform": [
    [
      0.0,
      -1.0,
      0.0,
      95.0
    ],
    [
      1.0,
      0.0,
      0.0,
      0.0
    ],
    [
      0.0,
      0.0,
      1.0,
      0.0
    ],
    [
      0.0,
      0.0,
      0.0,
      1.0
    ]
  ],
  "dcmmeta_shape": [
    96,
    96,
    48,
    288
  ],
  "dcmmeta_slice_dim": 2,
  "dcmmeta_version": 0.6,
  "global": {
    "const": {
      "AccessionNumber": "A001315",
      "AcquisitionMatrix": [
        96,
        0,
        0,
        96
      ],
      "AngioFlag": "N",
      "BitsAllocated": 16,
      "BitsStored": 12,
      "BodyPartExamined": "BRAIN",
      "Columns": 672,
      "EchoNumbers": 1,
      "EchoTime": 33.0,
      "EchoTrainLength": 96,
      "FlipAngle": 59.0,
      "HighBit": 11,
      "ImageOrientationPatient": [
        0.99991141422033,
        0.01054389702346,
        -0.0081234196899,
        -0.0106459703329,
        0.99986361131165,
        -0.0126262460964
      ],
      "ImagePositionPatient": [
        -832.05467248473,
        -858.30275850906,
        -56.016516396211
      ],
      "ImageType": [
        "ORIGINAL",
        "PRIMARY",
        "FMRI",
        "NONE",
        "ND",
        "NORM",
        "MOSAIC"
      ],
      "ImagedNucleus": "1H",
      "ImagingFrequency": 123.252356,
      "InPlanePhaseEncodingDirection": "COL",
      "MRAcquisitionType": "2D",
      "MagneticFieldStrength": 3.0,
      "Manufacturer": "SIEMENS",
      "ManufacturerModelName": "Prisma",
      "Modality": "MR",
      "NumberOfAverages": 1.0,
      "NumberOfPhaseEncodingSteps": 96,
      "PercentPhaseFieldOfView": 100.0,
      "PercentSampling": 100.0,
      "PerformedProcedureStepStartTime": "200647.584000",
      "PhotometricInterpretation": "MONOCHROME2",
      "PixelBandwidth": 2365.0,
      "PixelRepresentation": 0,
      "PixelSpacing": [
        2.5,
        2.5
      ],
      "PositionReferenceIndicator": "",
      "ProtocolName": "func_run-07_task-visualmemory",
      "RepetitionTime": 1000.0,
      "Rows": 672,
      "SAR": 0.04595754774131,
      "SamplesPerPixel": 1,
      "ScanOptions": "FS",
      "ScanningSequence": "EP",
      "SequenceName": "*epfid2d1_96",
      "SequenceVariant": "SK",
      "SeriesDescription": "func_run-07_task-visualmemory",
      "SeriesNumber": 49,
      "SeriesTime": "205408.510000",
      "SliceLocation": -73.568048084648,
      "SliceThickness": 2.5,
      "SmallestImagePixelValue": 0,
      "SoftwareVersions": "syngo MR E11",
      "SpacingBetweenSlices": 2.4999999800671,
      "SpecificCharacterSet": "ISO_IR 100",
      "StudyID": "4",
      "StudyTime": "200647.537000",
      "TransmitCoilName": "Body",
      "VariableFlipAngleFlag": "N",
      "WindowCenterWidthExplanation": "Algo1",
      "dBdt": 0.0
    },
    "slices": {}
  },
  "time": {
    "samples": {
      "AcquisitionNumber": [
        1,
        2,
        3,
        4,
        5,
        6,
        7,
        8,
        9,
        10,
        11,
        12,
        13,
        14,
        15,
        16,
        17,
        18,
        19,
        20,
        21,
        22,
        23,
        24,
        25,
        26,
        27,
        28,
        29,
        30,
        31,
        32,
        33,
        34,
        35,
        36,
        37,
        38,
        39,
        40,
        41,
        42,
        43,
        44,
        45,
        46,
        47,
        48,
        49,
        50,
        51,
        52,
        53,
        54,
        55,
        56,
        57,
        58,
        59,
        60,
        61,
        62,
        63,
        64,
        65,
        66,
        67,
        68,
        69,
        70,
        71,
        72,
        73,
        74,
        75,
        76,
        77,
        78,
        79,
        80,
        81,
        82,
        83,
        84,
        85,
        86,
        87,
        88,
        89,
        90,
        91,
        92,
        93,
        94,
        95,
        96,
        97,
        98,
        99,
        100,
        101,
        102,
        103,
        104,
        105,
        106,
        107,
        108,
        109,
        110,
        111,
        112,
        113,
        114,
        115,
        116,
        117,
        118,
        119,
        120,
        121,
        122,
        123,
        124,
        125,
        126,
        127,
        128,
        129,
        130,
        131,
        132,
        133,
        134,
        135,
        136,
        137,
        138,
        139,
        140,
        141,
        142,
        143,
        144,
        145,
        146,
        147,
        148,
        149,
        150,
        151,
        152,
        153,
        154,
        155,
        156,
        157,
        158,
        159,
        160,
        161,
        162,
        163,
        164,
        165,
        166,
        167,
        168,
        169,
        170,
        171,
        172,
        173,
        174,
        175,
        176,
        177,
        178,
        179,
        180,
        181,
        182,
        183,
        184,
        185,
        186,
        187,
        188,
        189,
        190,
        191,
        192,
        193,
        194,
        195,
        196,
        197,
        198,
        199,
        200,
        201,
        202,
        203,
        204,
        205,
        206,
        207,
        208,
        209,
        210,
        211,
        212,
        213,
        214,
        215,
        216,
        217,
        218,
        219,
        220,
        221,
        222,
        223,
        224,
        225,
        226,
        227,
        228,
        229,
        230,
        231,
        232,
        233,
        234,
        235,
        236,
        237,
        238,
        239,
        240,
        241,
        242,
        243,
        244,
        245,
        246,
        247,
        248,
        249,
        250,
        251,
        252,
        253,
        254,
        255,
        256,
        257,
        258,
        259,
        260,
        261,
        262,
        263,
        264,
        265,
        266,
        267,
        268,
        269,
        270,
        271,
        272,
        273,
        274,
        275,
        276,
        277,
        278,
        279,
        280,
        281,
        282,
        283,
        284,
        285,
        286,
        287,
        288
      ],
      "AcquisitionTime": [
        "205407.007500",
        "205408.007500",
        "205409.007500",
        "205410.007500",
        "205411.007500",
        "205412.007500",
        "205413.007500",
        "205414.007500",
        "205415.007500",
        "205416.007500",
        "205417.007500",
        "205418.007500",
        "205419.007500",
        "205420.007500",
        "205421.007500",
        "205422.007500",
        "205423.007500",
        "205424.007500",
        "205425.007500",
        "205426.007500",
        "205427.007500",
        "205428.007500",
        "205429.007500",
        "205430.007500",
        "205431.007500",
        "205432.007500",
        "205433.007500",
        "205434.007500",
        "205435.007500",
        "205436.007500",
        "205437.007500",
        "205438.007500",
        "205439.007500",
        "205440.007500",
        "205441.007500",
        "205442.007500",
        "205443.007500",
        "205444.007500",
        "205445.007500",
        "205446.007500",
        "205447.007500",
        "205448.007500",
        "205449.007500",
        "205450.007500",
        "205451.007500",
        "205452.007500",
        "205453.007500",
        "205454.007500",
        "205455.007500",
        "205456.007500",
        "205457.007500",
        "205458.007500",
        "205459.007500",
        "205500.007500",
        "205501.007500",
        "205502.007500",
        "205503.007500",
        "205504.007500",
        "205505.007500",
        "205506.007500",
        "205507.007500",
        "205508.007500",
        "205509.007500",
        "205510.007500",
        "205511.007500",
        "205512.007500",
        "205513.007500",
        "205514.007500",
        "205515.007500",
        "205516.007500",
        "205517.007500",
        "205518.007500",
        "205519.007500",
        "205520.007500",
        "205521.007500",
        "205522.007500",
        "205523.007500",
        "205524.007500",
        "205525.007500",
        "205526.007500",
        "205527.007500",
        "205528.007500",
        "205529.007500",
        "205530.007500",
        "205531.007500",
        "205532.007500",
        "205533.007500",
        "205534.007500",
        "205535.007500",
        "205536.007500",
        "205537.007500",
        "205538.007500",
        "205539.007500",
        "205540.007500",
        "205541.007500",
        "205542.007500",
        "205543.007500",
        "205544.007500",
        "205545.007500",
        "205546.007500",
        "205547.007500",
        "205548.007500",
        "205549.007500",
        "205550.007500",
        "205551.007500",
        "205552.007500",
        "205553.007500",
        "205554.007500",
        "205555.007500",
        "205556.007500",
        "205557.007500",
        "205558.007500",
        "205559.007500",
        "205600.007500",
        "205601.007500",
        "205602.007500",
        "205603.007500",
        "205604.007500",
        "205605.007500",
        "205606.007500",
        "205607.007500",
        "205608.007500",
        "205609.007500",
        "205610.007500",
        "205611.007500",
        "205612.007500",
        "205613.007500",
        "205614.007500",
        "205615.007500",
        "205616.007500",
        "205617.007500",
        "205618.007500",
        "205619.007500",
        "205620.007500",
        "205621.007500",
        "205622.007500",
        "205623.007500",
        "205624.007500",
        "205625.007500",
        "205626.007500",
        "205627.007500",
        "205628.007500",
        "205629.007500",
        "205630.007500",
        "205631.007500",
        "205632.007500",
        "205633.007500",
        "205634.007500",
        "205635.007500",
        "205636.007500",
        "205637.007500",
        "205638.007500",
        "205639.007500",
        "205640.007500",
        "205641.007500",
        "205642.007500",
        "205643.007500",
        "205644.007500",
        "205645.007500",
        "205646.007500",
        "205647.007500",
        "205648.007500",
        "205649.007500",
        "205650.007500",
        "205651.007500",
        "205652.007500",
        "205653.007500",
        "205654.007500",
        "205655.007500",
        "205656.007500",
        "205657.007500",
        "205658.007500",
        "205659.007500",
        "205700.007500",
        "205701.007500",
        "205702.007500",
        "205703.007500",
        "205704.007500",
        "205705.007500",
        "205706.007500",
        "205707.007500",
        "205708.007500",
        "205709.007500",
        "205710.007500",
        "205711.007500",
        "205712.007500",
        "205713.007500",
        "205714.007500",
        "205715.007500",
        "205716.007500",
        "205717.007500",
        "205718.007500",
        "205719.007500",
        "205720.007500",
        "205721.007500",
        "205722.007500",
        "205723.007500",
        "205724.007500",
        "205725.007500",
        "205726.007500",
        "205727.007500",
        "205728.007500",
        "205729.007500",
        "205730.007500",
        "205731.007500",
        "205732.007500",
        "205733.007500",
        "205734.007500",
        "205735.007500",
        "205736.007500",
        "205737.007500",
        "205738.007500",
        "205739.007500",
        "205740.007500",
        "205741.007500",
        "205742.007500",
        "205743.007500",
        "205744.007500",
        "205745.007500",
        "205746.007500",
        "205747.007500",
        "205748.007500",
        "205749.007500",
        "205750.007500",
        "205751.007500",
        "205752.007500",
        "205753.007500",
        "205754.007500",
        "205755.007500",
        "205756.007500",
        "205757.007500",
        "205758.007500",
        "205759.007500",
        "205800.007500",
        "205801.007500",
        "205802.007500",
        "205803.007500",
        "205804.007500",
        "205805.007500",
        "205806.007500",
        "205807.007500",
        "205808.007500",
        "205809.007500",
        "205810.007500",
        "205811.007500",
        "205812.007500",
        "205813.007500",
        "205814.007500",
        "205815.007500",
        "205816.007500",
        "205817.007500",
        "205818.007500",
        "205819.007500",
        "205820.007500",
        "205821.007500",
        "205822.007500",
        "205823.007500",
        "205824.007500",
        "205825.007500",
        "205826.007500",
        "205827.007500",
        "205828.007500",
        "205829.007500",
        "205830.007500",
        "205831.007500",
        "205832.007500",
        "205833.007500",
        "205834.007500",
        "205835.007500",
        "205836.007500",
        "205837.007500",
        "205838.007500",
        "205839.007500",
        "205840.007500",
        "205841.007500",
        "205842.007500",
        "205843.007500",
        "205844.007500",
        "205845.007500",
        "205846.007500",
        "205847.007500",
        "205848.007500",
        "205849.007500",
        "205850.007500",
        "205851.007500",
        "205852.007500",
        "205853.007500",
        "205854.007500"
      ],
      "ContentTime": [
        "205408.515000",
        "205409.351000",
        "205410.379000",
        "205411.427000",
        "205412.391000",
        "205413.397000",
        "205414.375000",
        "205415.384000",
        "205416.429000",
        "205417.357000",
        "205418.355000",
        "205419.388000",
        "205420.412000",
        "205421.374000",
        "205422.404000",
        "205423.400000",
        "205424.362000",
        "205425.392000",
        "205426.390000",
        "205427.380000",
        "205428.372000",
        "205429.369000",
        "205430.392000",
        "205431.423000",
        "205432.433000",
        "205433.432000",
        "205434.390000",
        "205435.357000",
        "205436.376000",
        "205437.387000",
        "205438.402000",
        "205439.385000",
        "205440.363000",
        "205441.401000",
        "205442.371000",
        "205443.400000",
        "205444.382000",
        "205445.384000",
        "205446.366000",
        "205447.398000",
        "205448.360000",
        "205449.381000",
        "205450.382000",
        "205451.386000",
        "205452.382000",
        "205453.396000",
        "205454.358000",
        "205455.372000",
        "205456.356000",
        "205457.374000",
        "205458.380000",
        "205459.392000",
        "205500.370000",
        "205501.420000",
        "205502.373000",
        "205503.375000",
        "205504.394000",
        "205505.374000",
        "205506.364000",
        "205507.405000",
        "205508.387000",
        "205509.381000",
        "205510.394000",
        "205511.422000",
        "205512.369000",
        "205513.381000",
        "205514.400000",
        "205515.369000",
        "205516.378000",
        "205517.364000",
        "205518.379000",
        "205519.378000",
        "205520.380000",
        "205521.394000",
        "205522.436000",
        "205523.422000",
        "205524.391000",
        "205525.378000",
        "205526.381000",
        "205527.357000",
        "205528.374000",
        "205529.389000",
        "205530.389000",
        "205531.372000",
        "205532.355000",
        "205533.384000",
        "205534.368000",
        "205535.400000",
        "205536.409000",
        "205537.404000",
        "205538.417000",
        "205539.395000",
        "205540.369000",
        "205541.351000",
        "205542.358000",
        "205543.393000",
        "205544.388000",
        "205545.379000",
        "205546.379000",
        "205547.389000",
        "205548.392000",
        "205549.404000",
        "205550.386000",
        "205551.408000",
        "205552.415000",
        "205553.405000",
        "205554.388000",
        "205555.394000",
        "205556.381000",
        "205557.363000",
        "205558.403000",
        "205559.409000",
        "205600.378000",
        "205601.374000",
        "205602.390000",
        "205603.416000",
        "205604.404000",
        "205605.413000",
        "205606.364000",
        "205607.384000",
        "205608.403000",
        "205609.399000",
        "205610.402000",
        "205611.393000",
        "205612.374000",
        "205613.375000",
        "205614.385000",
        "205615.429000",
        "205616.393000",
        "205617.441000",
        "205618.380000",
        "205619.380000",
        "205620.389000",
        "205621.374000",
        "205622.378000",
        "205623.394000",
        "205624.430000",
        "205625.394000",
        "205626.441000",
        "205627.377000",
        "205628.434000",
        "205629.348000",
        "205630.408000",
        "205631.391000",
        "205632.390000",
        "205633.424000",
        "205634.379000",
        "205635.356000",
        "205636.391000",
        "205637.398000",
        "205638.378000",
        "205639.388000",
        "205640.407000",
        "205641.393000",
        "205642.380000",
        "205643.449000",
        "205644.410000",
        "205645.387000",
        "205646.379000",
        "205647.397000",
        "205648.376000",
        "205649.377000",
        "205650.371000",
        "205651.389000",
        "205652.412000",
        "205653.357000",
        "205654.359000",
        "205655.429000",
        "205656.389000",
        "205657.401000",
        "205658.386000",
        "205659.402000",
        "205700.431000",
        "205701.376000",
        "205702.390000",
        "205703.378000",
        "205704.390000",
        "205705.378000",
        "205706.409000",
        "205707.382000",
        "205708.410000",
        "205709.422000",
        "205710.398000",
        "205711.356000",
        "205712.384000",
        "205713.369000",
        "205714.374000",
        "205715.401000",
        "205716.426000",
        "205717.357000",
        "205718.419000",
        "205719.433000",
        "205720.408000",
        "205721.379000",
        "205722.408000",
        "205723.401000",
        "205724.384000",
        "205725.395000",
        "205726.395000",
        "205727.357000",
        "205728.368000",
        "205729.429000",
        "205730.376000",
        "205731.422000",
        "205732.419000",
        "205733.383000",
        "205734.389000",
        "205735.375000",
        "205736.368000",
        "205737.385000",
        "205738.386000",
        "205739.382000",
        "205740.409000",
        "205741.399000",
        "205742.377000",
        "205743.405000",
        "205744.385000",
        "205745.398000",
        "205746.382000",
        "205747.381000",
        "205748.401000",
        "205749.383000",
        "205750.373000",
        "205751.376000",
        "205752.383000",
        "205753.407000",
        "205754.386000",
        "205755.408000",
        "205756.386000",
        "205757.370000",
        "205758.372000",
        "205759.408000",
        "205800.385000",
        "205801.390000",
        "205802.372000",
        "205803.383000",
        "205804.394000",
        "205805.394000",
        "205806.388000",
        "205807.390000",
        "205808.392000",
        "205809.388000",
        "205810.402000",
        "205811.384000",
        "205812.395000",
        "205813.382000",
        "205814.382000",
        "205815.382000",
        "205816.432000",
        "205817.392000",
        "205818.389000",
        "205819.387000",
        "205820.387000",
        "205821.390000",
        "205822.413000",
        "205823.395000",
        "205824.396000",
        "205825.384000",
        "205826.380000",
        "205827.389000",
        "205828.394000",
        "205829.385000",
        "205830.391000",
        "205831.412000",
        "205832.389000",
        "205833.400000",
        "205834.401000",
        "205835.393000",
        "205836.375000",
        "205837.378000",
        "205838.392000",
        "205839.435000",
        "205840.415000",
        "205841.379000",
        "205842.416000",
        "205843.412000",
        "205844.415000",
        "205845.414000",
        "205846.368000",
        "205847.419000",
        "205848.399000",
        "205849.384000",
        "205850.426000",
        "205851.363000",
        "205852.361000",
        "205853.378000",
        "205854.396000",
        "205855.422000"
      ],
      "InstanceCreationTime": [
        "205408.515000",
        "205409.351000",
        "205410.379000",
        "205411.427000",
        "205412.391000",
        "205413.397000",
        "205414.375000",
        "205415.384000",
        "205416.429000",
        "205417.357000",
        "205418.355000",
        "205419.388000",
        "205420.412000",
        "205421.374000",
        "205422.404000",
        "205423.400000",
        "205424.362000",
        "205425.392000",
        "205426.390000",
        "205427.380000",
        "205428.372000",
        "205429.369000",
        "205430.392000",
        "205431.423000",
        "205432.433000",
        "205433.432000",
        "205434.390000",
        "205435.357000",
        "205436.376000",
        "205437.387000",
        "205438.402000",
        "205439.385000",
        "205440.363000",
        "205441.401000",
        "205442.371000",
        "205443.400000",
        "205444.382000",
        "205445.384000",
        "205446.366000",
        "205447.398000",
        "205448.360000",
        "205449.381000",
        "205450.382000",
        "205451.386000",
        "205452.382000",
        "205453.396000",
        "205454.358000",
        "205455.372000",
        "205456.356000",
        "205457.374000",
        "205458.380000",
        "205459.392000",
        "205500.370000",
        "205501.420000",
        "205502.373000",
        "205503.375000",
        "205504.394000",
        "205505.374000",
        "205506.364000",
        "205507.405000",
        "205508.387000",
        "205509.381000",
        "205510.394000",
        "205511.422000",
        "205512.369000",
        "205513.381000",
        "205514.400000",
        "205515.369000",
        "205516.378000",
        "205517.364000",
        "205518.379000",
        "205519.378000",
        "205520.380000",
        "205521.394000",
        "205522.436000",
        "205523.422000",
        "205524.391000",
        "205525.378000",
        "205526.381000",
        "205527.357000",
        "205528.374000",
        "205529.389000",
        "205530.389000",
        "205531.372000",
        "205532.355000",
        "205533.384000",
        "205534.368000",
        "205535.400000",
        "205536.409000",
        "205537.404000",
        "205538.417000",
        "205539.395000",
        "205540.369000",
        "205541.351000",
        "205542.358000",
        "205543.393000",
        "205544.388000",
        "205545.379000",
        "205546.379000",
        "205547.389000",
        "205548.392000",
        "205549.404000",
        "205550.386000",
        "205551.408000",
        "205552.415000",
        "205553.405000",
        "205554.388000",
        "205555.394000",
        "205556.381000",
        "205557.363000",
        "205558.403000",
        "205559.409000",
        "205600.378000",
        "205601.374000",
        "205602.390000",
        "205603.416000",
        "205604.404000",
        "205605.413000",
        "205606.364000",
        "205607.384000",
        "205608.403000",
        "205609.399000",
        "205610.402000",
        "205611.393000",
        "205612.374000",
        "205613.375000",
        "205614.385000",
        "205615.429000",
        "205616.393000",
        "205617.441000",
        "205618.380000",
        "205619.380000",
        "205620.389000",
        "205621.374000",
        "205622.378000",
        "205623.394000",
        "205624.430000",
        "205625.394000",
        "205626.441000",
        "205627.377000",
        "205628.434000",
        "205629.348000",
        "205630.408000",
        "205631.391000",
        "205632.390000",
        "205633.424000",
        "205634.379000",
        "205635.356000",
        "205636.391000",
        "205637.398000",
        "205638.378000",
        "205639.388000",
        "205640.407000",
        "205641.393000",
        "205642.380000",
        "205643.449000",
        "205644.410000",
        "205645.387000",
        "205646.379000",
        "205647.397000",
        "205648.376000",
        "205649.377000",
        "205650.371000",
        "205651.389000",
        "205652.412000",
        "205653.357000",
        "205654.359000",
        "205655.429000",
        "205656.389000",
        "205657.401000",
        "205658.386000",
        "205659.402000",
        "205700.431000",
        "205701.376000",
        "205702.390000",
        "205703.378000",
        "205704.390000",
        "205705.378000",
        "205706.409000",
        "205707.382000",
        "205708.410000",
        "205709.422000",
        "205710.398000",
        "205711.356000",
        "205712.384000",
        "205713.369000",
        "205714.374000",
        "205715.401000",
        "205716.426000",
        "205717.357000",
        "205718.419000",
        "205719.433000",
        "205720.408000",
        "205721.379000",
        "205722.408000",
        "205723.401000",
        "205724.384000",
        "205725.395000",
        "205726.395000",
        "205727.357000",
        "205728.368000",
        "205729.429000",
        "205730.376000",
        "205731.422000",
        "205732.419000",
        "205733.383000",
        "205734.389000",
        "205735.375000",
        "205736.368000",
        "205737.385000",
        "205738.386000",
        "205739.382000",
        "205740.409000",
        "205741.399000",
        "205742.377000",
        "205743.405000",
        "205744.385000",
        "205745.398000",
        "205746.382000",
        "205747.381000",
        "205748.401000",
        "205749.383000",
        "205750.373000",
        "205751.376000",
        "205752.383000",
        "205753.407000",
        "205754.386000",
        "205755.408000",
        "205756.386000",
        "205757.370000",
        "205758.372000",
        "205759.408000",
        "205800.385000",
        "205801.390000",
