{
  "AcquisitionMatrixPE": 96,
  "AcquisitionNumber": 1,
  "AcquisitionTime": "20:43:45.687500",
  "BandwidthPerPixelPhaseEncode": 18.939,
  "BaseResolution": 96,
  "BodyPartExamined": "BRAIN",
  "ConsistencyInfo": "N4_VE11C_LATEST_20160120",
  "ConversionSoftware": "dcm2niix",
  "ConversionSoftwareVersion": "v1.0.20171215 (OpenJPEG build) GCC6.3.0",
  "DerivedVendorReportedEchoSpacing": 0.000550011,
  "DeviceSerialNumber": "66112",
  "DwellTime": 2.2e-06,
  "EchoTime": 0.033,
  "EchoTrainLength": 96,
  "EffectiveEchoSpacing": 0.000550011,
  "FlipAngle": 59,
  "ImageOrientationPatientDICOM": [
    0.999911,
    0.0105439,
    -0.00812342,
    -0.010646,
    0.999864,
    -0.0126262
  ],
  "ImageType": [
    "ORIGINAL",
    "PRIMARY",
    "FMRI",
    "NONE",
    "ND",
    "NORM",
    "MOSAIC"
  ],
  "InPlanePhaseEncodingDirectionDICOM": "COL",
  "InstitutionAddress": "Maynard_3_Hanover_NH_US_03755",
  "InstitutionName": "Dartmouth_College_-_PBS",
  "InstitutionalDepartmentName": "Department",
  "MRAcquisitionType": "2D",
  "MagneticFieldStrength": 3,
  "Manufacturer": "Siemens",
  "ManufacturersModelName": "Prisma",
  "Modality": "MR",
  "MultibandAccelerationFactor": 4,
  "PatientPosition": "HFS",
  "PercentPhaseFOV": 100,
  "PhaseEncodingDirection": "j-",
  "PhaseEncodingSteps": 96,
  "PhaseResolution": 1,
  "PixelBandwidth": 2365,
  "ProcedureStepDescription": "Gobbini_Matteo_1038_hyperface",
  "ProtocolName": "func_run-05_task-localizer",
  "PulseSequenceDetails": "%SiemensSeq%_ep2d_bold",
  "ReceiveCoilActiveElements": "HEA;HEP",
  "ReceiveCoilName": "Head_32",
  "ReconMatrixPE": 96,
  "RepetitionTime": 1,
  "SAR": 0.0458477,
  "ScanOptions": "FS",
  "ScanningSequence": "EP",
  "SequenceName": "_epfid2d1_96",
  "SequenceVariant": "SK",
  "SeriesDescription": "func_run-05_task-localizer",
  "SeriesNumber": 35,
  "ShimSetting": [
    4149,
    -7784,
    -7355,
    907,
    -111,
    -325,
    309,
    62
  ],
  "SliceThickness": 2.5,
  "SliceTiming": [
    0.735,
    0,
    0.49,
    0.0825,
    0.5725,
    0.1625,
    0.6525,
    0.3275,
    0.8175,
    0.4075,
    0.8975,
    0.245,
    0.735,
    0,
    0.49,
    0.0825,
    0.5725,
    0.1625,
    0.6525,
    0.3275,
    0.8175,
    0.4075,
    0.8975,
    0.245,
    0.735,
    0,
    0.49,
    0.0825,
    0.5725,
    0.1625,
    0.6525,
    0.3275,
    0.8175,
    0.4075,
    0.8975,
    0.245,
    0.735,
    0,
    0.49,
    0.0825,
    0.5725,
    0.1625,
    0.6525,
    0.3275,
    0.8175,
    0.4075,
    0.8975,
    0.245
  ],
  "SoftwareVersions": "syngo_MR_E11",
  "SpacingBetweenSlices": 2.5,
  "StationName": "AWP66112",
  "TotalReadoutTime": 0.0522511,
  "TxRefAmp": 230.503,
  "dcmmeta_affine": [
    [
      -2.4997785091400146,
      -0.026614926755428314,
      -0.01997295394539833,
      122.31197357177734
    ],
    [
      -0.026359742507338524,
      2.4996590614318848,
      -0.03177902474999428,
      -106.65825653076172
    ],
    [
      -0.02030854858458042,
      0.03156561404466629,
      2.499718189239502,
      -73.95500946044922
    ],
    [
      0.0,
      0.0,
      0.0,
      1.0
    ]
  ],
  "dcmmeta_reorient_transform": [
    [
      0.0,
      -1.0,
      0.0,
      95.0
    ],
    [
      1.0,
      0.0,
      0.0,
      0.0
    ],
    [
      0.0,
      0.0,
      1.0,
      0.0
    ],
    [
      0.0,
      0.0,
      0.0,
      1.0
    ]
  ],
  "dcmmeta_shape": [
    96,
    96,
    48,
    236
  ],
  "dcmmeta_slice_dim": 2,
  "dcmmeta_version": 0.6,
  "global": {
    "const": {
      "AccessionNumber": "A001315",
      "AcquisitionMatrix": [
        96,
        0,
        0,
        96
      ],
      "AngioFlag": "N",
      "BitsAllocated": 16,
      "BitsStored": 12,
      "BodyPartExamined": "BRAIN",
      "Columns": 672,
      "EchoNumbers": 1,
      "EchoTime": 33.0,
      "EchoTrainLength": 96,
      "FlipAngle": 59.0,
      "HighBit": 11,
      "ImageOrientationPatient": [
        0.99991141422033,
        0.01054389702346,
        -0.0081234196899,
        -0.0106459703329,
        0.99986361131165,
        -0.0126262460964
      ],
      "ImagePositionPatient": [
        -832.05467248473,
        -858.30275850906,
        -56.016516396211
      ],
      "ImageType": [
        "ORIGINAL",
        "PRIMARY",
        "FMRI",
        "NONE",
        "ND",
        "NORM",
        "MOSAIC"
      ],
      "ImagedNucleus": "1H",
      "ImagingFrequency": 123.252355,
      "InPlanePhaseEncodingDirection": "COL",
      "MRAcquisitionType": "2D",
      "MagneticFieldStrength": 3.0,
      "Manufacturer": "SIEMENS",
      "ManufacturerModelName": "Prisma",
      "Modality": "MR",
      "NumberOfAverages": 1.0,
      "NumberOfPhaseEncodingSteps": 96,
      "PercentPhaseFieldOfView": 100.0,
      "PercentSampling": 100.0,
      "PerformedProcedureStepStartTime": "200647.584000",
      "PhotometricInterpretation": "MONOCHROME2",
      "PixelBandwidth": 2365.0,
      "PixelRepresentation": 0,
      "PixelSpacing": [
        2.5,
        2.5
      ],
      "PositionReferenceIndicator": "",
      "ProtocolName": "func_run-05_task-localizer",
      "RepetitionTime": 1000.0,
      "Rows": 672,
      "SAR": 0.04584765755642,
      "SamplesPerPixel": 1,
      "ScanOptions": "FS",
      "ScanningSequence": "EP",
      "SequenceName": "*epfid2d1_96",
      "SequenceVariant": "SK",
      "SeriesDescription": "func_run-05_task-localizer",
      "SeriesNumber": 35,
      "SeriesTime": "204346.732000",
      "SliceLocation": -73.568048084648,
      "SliceThickness": 2.5,
      "SmallestImagePixelValue": 0,
      "SoftwareVersions": "syngo MR E11",
      "SpacingBetweenSlices": 2.4999999800671,
      "SpecificCharacterSet": "ISO_IR 100",
      "StudyID": "4",
      "StudyTime": "200647.537000",
      "TransmitCoilName": "Body",
      "VariableFlipAngleFlag": "N",
      "WindowCenterWidthExplanation": "Algo1",
      "dBdt": 0.0
    },
    "slices": {}
  },
  "time": {
    "samples": {
      "AcquisitionNumber": [
        1,
        2,
        3,
        4,
        5,
        6,
        7,
        8,
        9,
        10,
        11,
        12,
        13,
        14,
        15,
        16,
        17,
        18,
        19,
        20,
        21,
        22,
        23,
        24,
        25,
        26,
        27,
        28,
        29,
        30,
        31,
        32,
        33,
        34,
        35,
        36,
        37,
        38,
        39,
        40,
        41,
        42,
        43,
        44,
        45,
        46,
        47,
        48,
        49,
        50,
        51,
        52,
        53,
        54,
        55,
        56,
        57,
        58,
        59,
        60,
        61,
        62,
        63,
        64,
        65,
        66,
        67,
        68,
        69,
        70,
        71,
        72,
        73,
        74,
        75,
        76,
        77,
        78,
        79,
        80,
        81,
        82,
        83,
        84,
        85,
        86,
        87,
        88,
        89,
        90,
        91,
        92,
        93,
        94,
        95,
        96,
        97,
        98,
        99,
        100,
        101,
        102,
        103,
        104,
        105,
        106,
        107,
        108,
        109,
        110,
        111,
        112,
        113,
        114,
        115,
        116,
        117,
        118,
        119,
        120,
        121,
        122,
        123,
        124,
        125,
        126,
        127,
        128,
        129,
        130,
        131,
        132,
        133,
        134,
        135,
        136,
        137,
        138,
        139,
        140,
        141,
        142,
        143,
        144,
        145,
        146,
        147,
        148,
        149,
        150,
        151,
        152,
        153,
        154,
        155,
        156,
        157,
        158,
        159,
        160,
        161,
        162,
        163,
        164,
        165,
        166,
        167,
        168,
        169,
        170,
        171,
        172,
        173,
        174,
        175,
        176,
        177,
        178,
        179,
        180,
        181,
        182,
        183,
        184,
        185,
        186,
        187,
        188,
        189,
        190,
        191,
        192,
        193,
        194,
        195,
        196,
        197,
        198,
        199,
        200,
        201,
        202,
        203,
        204,
        205,
        206,
        207,
        208,
        209,
        210,
        211,
        212,
        213,
        214,
        215,
        216,
        217,
        218,
        219,
        220,
        221,
        222,
        223,
        224,
        225,
        226,
        227,
        228,
        229,
        230,
        231,
        232,
        233,
        234,
        235,
        236
      ],
      "AcquisitionTime": [
        "204345.687500",
        "204346.687500",
        "204347.687500",
        "204348.687500",
        "204349.687500",
        "204350.687500",
        "204351.687500",
        "204352.687500",
        "204353.687500",
        "204354.687500",
        "204355.687500",
        "204356.687500",
        "204357.687500",
        "204358.687500",
        "204359.687500",
        "204400.687500",
        "204401.687500",
        "204402.687500",
        "204403.687500",
        "204404.687500",
        "204405.687500",
        "204406.687500",
        "204407.687500",
        "204408.687500",
        "204409.687500",
        "204410.687500",
        "204411.687500",
        "204412.687500",
        "204413.687500",
        "204414.687500",
        "204415.687500",
        "204416.687500",
        "204417.687500",
        "204418.687500",
        "204419.687500",
        "204420.687500",
        "204421.687500",
        "204422.687500",
        "204423.687500",
        "204424.687500",
        "204425.687500",
        "204426.687500",
        "204427.687500",
        "204428.687500",
        "204429.687500",
        "204430.687500",
        "204431.687500",
        "204432.687500",
        "204433.687500",
        "204434.687500",
        "204435.687500",
        "204436.687500",
        "204437.687500",
        "204438.687500",
        "204439.687500",
        "204440.687500",
        "204441.687500",
        "204442.687500",
        "204443.687500",
        "204444.687500",
        "204445.687500",
        "204446.687500",
        "204447.687500",
        "204448.687500",
        "204449.687500",
        "204450.687500",
        "204451.687500",
        "204452.687500",
        "204453.687500",
        "204454.687500",
        "204455.687500",
        "204456.687500",
        "204457.687500",
        "204458.687500",
        "204459.687500",
        "204500.687500",
        "204501.687500",
        "204502.687500",
        "204503.687500",
        "204504.687500",
        "204505.687500",
        "204506.687500",
        "204507.687500",
        "204508.687500",
        "204509.687500",
        "204510.687500",
        "204511.687500",
        "204512.687500",
        "204513.687500",
        "204514.687500",
        "204515.687500",
        "204516.687500",
        "204517.687500",
        "204518.687500",
        "204519.687500",
        "204520.687500",
        "204521.687500",
        "204522.687500",
        "204523.687500",
        "204524.687500",
        "204525.687500",
        "204526.687500",
        "204527.687500",
        "204528.687500",
        "204529.687500",
        "204530.687500",
        "204531.687500",
        "204532.687500",
        "204533.687500",
        "204534.687500",
        "204535.687500",
        "204536.687500",
        "204537.687500",
        "204538.687500",
        "204539.687500",
        "204540.687500",
        "204541.687500",
        "204542.687500",
        "204543.687500",
        "204544.687500",
        "204545.687500",
        "204546.687500",
        "204547.687500",
        "204548.687500",
        "204549.687500",
        "204550.687500",
        "204551.687500",
        "204552.687500",
        "204553.687500",
        "204554.687500",
        "204555.687500",
        "204556.687500",
        "204557.687500",
        "204558.687500",
        "204559.687500",
        "204600.687500",
        "204601.687500",
        "204602.687500",
        "204603.687500",
        "204604.687500",
        "204605.687500",
        "204606.687500",
        "204607.687500",
        "204608.687500",
        "204609.687500",
        "204610.687500",
        "204611.687500",
        "204612.687500",
        "204613.687500",
        "204614.687500",
        "204615.687500",
        "204616.687500",
        "204617.687500",
        "204618.687500",
        "204619.687500",
        "204620.687500",
        "204621.687500",
        "204622.687500",
        "204623.687500",
        "204624.687500",
        "204625.687500",
        "204626.687500",
        "204627.687500",
        "204628.687500",
        "204629.687500",
        "204630.687500",
        "204631.687500",
        "204632.687500",
        "204633.687500",
        "204634.687500",
        "204635.687500",
        "204636.687500",
        "204637.687500",
        "204638.687500",
        "204639.687500",
        "204640.687500",
        "204641.687500",
        "204642.687500",
        "204643.687500",
        "204644.687500",
        "204645.687500",
        "204646.687500",
        "204647.687500",
        "204648.687500",
        "204649.687500",
        "204650.687500",
        "204651.687500",
        "204652.687500",
        "204653.687500",
        "204654.687500",
        "204655.687500",
        "204656.687500",
        "204657.687500",
        "204658.687500",
        "204659.687500",
        "204700.687500",
        "204701.687500",
        "204702.687500",
        "204703.687500",
        "204704.687500",
        "204705.687500",
        "204706.687500",
        "204707.687500",
        "204708.687500",
        "204709.687500",
        "204710.687500",
        "204711.687500",
        "204712.687500",
        "204713.687500",
        "204714.687500",
        "204715.687500",
        "204716.687500",
        "204717.687500",
        "204718.687500",
        "204719.687500",
        "204720.687500",
        "204721.687500",
        "204722.687500",
        "204723.687500",
        "204724.687500",
        "204725.687500",
        "204726.687500",
        "204727.687500",
        "204728.687500",
        "204729.687500",
        "204730.687500",
        "204731.687500",
        "204732.687500",
        "204733.687500",
        "204734.687500",
        "204735.687500",
        "204736.687500",
        "204737.687500",
        "204738.687500",
        "204739.687500",
        "204740.687500"
      ],
      "ContentTime": [
        "204346.736000",
        "204347.573000",
        "204348.541000",
        "204349.550000",
        "204350.577000",
        "204351.555000",
        "204352.539000",
        "204353.538000",
        "204354.559000",
        "204355.534000",
        "204356.517000",
        "204357.544000",
        "204358.539000",
        "204359.536000",
        "204400.552000",
        "204401.520000",
        "204402.593000",
        "204403.515000",
        "204404.526000",
        "204405.528000",
        "204406.546000",
        "204407.545000",
        "204408.546000",
        "204409.545000",
        "204410.538000",
        "204411.565000",
        "204412.518000",
        "204413.533000",
        "204414.557000",
        "204415.516000",
        "204416.576000",
        "204417.521000",
        "204418.529000",
        "204419.534000",
        "204420.528000",
        "204421.544000",
        "204422.540000",
        "204423.529000",
        "204424.549000",
        "204425.532000",
        "204426.524000",
        "204427.558000",
        "204428.560000",
        "204429.595000",
        "204430.570000",
        "204431.612000",
        "204432.546000",
        "204433.538000",
        "204434.518000",
        "204435.562000",
        "204436.551000",
        "204437.527000",
        "204438.518000",
        "204439.524000",
        "204440.532000",
        "204441.525000",
        "204442.555000",
        "204443.551000",
        "204444.565000",
        "204445.544000",
        "204446.533000",
        "204447.537000",
        "204448.531000",
        "204449.530000",
        "204450.518000",
        "204451.543000",
        "204452.536000",
        "204453.553000",
        "204454.546000",
        "204455.522000",
        "204456.531000",
        "204457.538000",
        "204458.535000",
        "204459.550000",
        "204500.531000",
        "204501.508000",
        "204502.543000",
        "204503.531000",
        "204504.552000",
        "204505.541000",
        "204506.529000",
        "204507.555000",
        "204508.543000",
        "204509.536000",
        "204510.535000",
        "204511.537000",
        "204512.513000",
        "204513.581000",
        "204514.533000",
        "204515.530000",
        "204516.531000",
        "204517.519000",
        "204518.553000",
        "204519.517000",
        "204520.545000",
        "204521.503000",
        "204522.563000",
        "204523.557000",
        "204524.553000",
        "204525.543000",
        "204526.540000",
        "204527.554000",
        "204528.564000",
        "204529.585000",
        "204530.524000",
        "204531.556000",
        "204532.528000",
        "204533.541000",
        "204534.533000",
        "204535.532000",
        "204536.512000",
        "204537.535000",
        "204538.543000",
        "204539.583000",
        "204540.531000",
        "204541.554000",
        "204542.540000",
        "204543.541000",
        "204544.539000",
        "204545.539000",
        "204546.538000",
        "204547.554000",
        "204548.552000",
        "204549.568000",
        "204550.559000",
        "204551.546000",
        "204552.549000",
        "204553.550000",
        "204554.555000",
        "204555.552000",
        "204556.540000",
        "204557.511000",
        "204558.577000",
        "204559.540000",
        "204600.554000",
        "204601.573000",
        "204602.540000",
        "204603.548000",
        "204604.557000",
        "204605.595000",
        "204606.569000",
        "204607.550000",
        "204608.528000",
        "204609.522000",
        "204610.543000",
        "204611.540000",
        "204612.537000",
        "204613.565000",
        "204614.550000",
        "204615.543000",
        "204616.597000",
        "204617.563000",
        "204618.530000",
        "204619.543000",
        "204620.559000",
        "204621.507000",
        "204622.566000",
        "204623.523000",
        "204624.550000",
        "204625.550000",
        "204626.527000",
        "204627.521000",
        "204628.551000",
        "204629.541000",
        "204630.569000",
        "204631.549000",
        "204632.549000",
        "204633.529000",
        "204634.538000",
        "204635.531000",
        "204636.544000",
        "204637.518000",
        "204638.547000",
        "204639.537000",
        "204640.537000",
        "204641.571000",
        "204642.540000",
        "204643.547000",
        "204644.544000",
        "204645.561000",
        "204646.554000",
        "204647.497000",
        "204648.549000",
        "204649.585000",
        "204650.537000",
        "204651.536000",
        "204652.541000",
        "204653.531000",
        "204654.536000",
        "204655.516000",
        "204656.538000",
        "204657.503000",
        "204658.548000",
        "204659.544000",
        "204700.629000",
        "204701.552000",
        "204702.522000",
        "204703.552000",
        "204704.548000",
        "204705.524000",
        "204706.546000",
        "204707.553000",
        "204708.560000",
        "204709.495000",
        "204710.552000",
        "204711.536000",
        "204712.616000",
        "204713.598000",
        "204714.581000",
        "204715.547000",
        "204716.536000",
        "204717.524000",
        "204718.529000",
        "204719.571000",
        "204720.597000",
        "204721.556000",
        "204722.547000",
        "204723.529000",
        "204724.536000",
        "204725.561000",
        "204726.526000",
        "204727.553000",
        "204728.532000",
        "204729.535000",
        "204730.549000",
        "204731.532000",
        "204732.547000",
        "204733.539000",
        "204734.539000",
        "204735.550000",
        "204736.548000",
        "204737.529000",
        "204738.559000",
        "204739.580000",
        "204740.567000",
        "204741.558000"
      ],
      "InstanceCreationTime": [
        "204346.736000",
        "204347.573000",
        "204348.541000",
        "204349.550000",
        "204350.577000",
        "204351.555000",
        "204352.539000",
        "204353.538000",
        "204354.559000",
        "204355.534000",
        "204356.517000",
        "204357.544000",
        "204358.539000",
        "204359.536000",
        "204400.552000",
        "204401.520000",
        "204402.593000",
        "204403.515000",
        "204404.526000",
        "204405.528000",
        "204406.546000",
        "204407.545000",
        "204408.546000",
        "204409.545000",
        "204410.538000",
        "204411.565000",
        "204412.518000",
        "204413.533000",
        "204414.557000",
        "204415.516000",
        "204416.576000",
        "204417.521000",
        "204418.529000",
        "204419.534000",
        "204420.528000",
        "204421.544000",
        "204422.540000",
        "204423.529000",
        "204424.549000",
        "204425.532000",
        "204426.524000",
        "204427.558000",
        "204428.560000",
        "204429.595000",
        "204430.570000",
        "204431.612000",
        "204432.546000",
        "204433.538000",
        "204434.518000",
        "204435.562000",
        "204436.551000",
        "204437.527000",
        "204438.518000",
        "204439.524000",
        "204440.532000",
        "204441.525000",
        "204442.555000",
        "204443.551000",
        "204444.565000",
        "204445.544000",
        "204446.533000",
        "204447.537000",
        "204448.531000",
        "204449.530000",
        "204450.518000",
        "204451.543000",
        "204452.536000",
        "204453.553000",
        "204454.546000",
        "204455.522000",
        "204456.531000",
        "204457.538000",
        "204458.535000",
        "204459.550000",
        "204500.531000",
        "204501.508000",
        "204502.543000",
        "204503.531000",
        "204504.552000",
        "204505.541000",
        "204506.529000",
        "204507.555000",
        "204508.543000",
        "204509.536000",
        "204510.535000",
        "204511.537000",
        "204512.513000",
        "204513.581000",
        "204514.533000",
        "204515.530000",
        "204516.531000",
        "204517.519000",
        "204518.553000",
        "204519.517000",
        "204520.545000",
        "204521.503000",
        "204522.563000",
        "204523.557000",
        "204524.553000",
        "204525.543000",
        "204526.540000",
        "204527.554000",
        "204528.564000",
        "204529.585000",
        "204530.524000",
        "204531.556000",
        "204532.528000",
        "204533.541000",
        "204534.533000",
        "204535.532000",
        "204536.512000",
        "204537.535000",
        "204538.543000",
        "204539.583000",
        "204540.531000",
        "204541.554000",
        "204542.540000",
        "204543.541000",
        "204544.539000",
        "204545.539000",
        "204546.538000",
        "204547.554000",
        "204548.552000",
        "204549.568000",
        "204550.559000",
        "204551.546000",
        "204552.549000",
        "204553.550000",
        "204554.555000",
        "204555.552000",
        "204556.540000",
        "204557.511000",
        "204558.577000",
        "204559.540000",
        "204600.554000",
        "204601.573000",
        "204602.540000",
        "204603.548000",
        "204604.557000",
        "204605.595000",
        "204606.569000",
        "204607.550000",
        "204608.528000",
        "204609.522000",
        "204610.543000",
        "204611.540000",
        "204612.537000",
        "204613.565000",
        "204614.550000",
        "204615.543000",
        "204616.597000",
        "204617.563000",
        "204618.530000",
        "204619.543000",
        "204620.559000",
        "204621.507000",
        "204622.566000",
        "204623.523000",
        "204624.550000",
        "204625.550000",
        "204626.527000",
        "204627.521000",
        "204628.551000",
        "204629.541000",
        "204630.569000",
        "204631.549000",
        "204632.549000",
        "204633.529000",
        "204634.538000",
        "204635.531000",
        "204636.544000",
        "204637.518000",
        "204638.547000",
        "204639.537000",
        "204640.537000",
        "204641.571000",
        "204642.540000",
        "204643.547000",
        "204644.544000",
        "204645.561000",
        "204646.554000",
        "204647.497000",
        "204648.549000",
        "204649.585000",
        "204650.537000",
        "204651.536000",
        "204652.541000",
        "204653.531000",
        "204654.536000",
        "204655.516000",
        "204656.538000",
        "204657.503000",
        "204658.548000",
        "204659.544000",
        "204700.629000",
        "204701.552000",
        "204702.522000",
        "204703.552000",
        "204704.548000",
        "204705.524000",
        "204706.546000",
        "204707.553000",
        "204708.560000",
        "204709.495000",
        "204710.552000",
        "204711.536000",
        "204712.616000",
        "204713.598000",
        "204714.581000",
        "204715.547000",
        "204716.536000",
        "204717.524000",
        "204718.529000",
        "204719.571000",
        "204720.597000",
        "204721.556000",
        "204722.547000",
        "204723.529000",
        "204724.536000",
        "204725.561000",
        "204726.526000",
        "204727.553000",
        "204728.532000",
        "204729.535000",
        "204730.549000",
        "204731.532000",
        "204732.547000",
        "204733.539000",
        "204734.539000",
        "204735.550000",
        "204736.548000",
        "204737.529000",
        "204738.559000",
        "204739.580000",
        "204740.567000",
        "204741.558000"
      ],
      "InstanceNumber": [
        1,
        2,
        3,
        4,
        5,
        6,
        7,
        8,
        9,
        10,
        11,
        12,
        13,
        14,
        15,
        16,
        17,
        18,
        19,
        20,
        21,
        22,
        23,
        24,
        25,
        26,
        27,
        28,
        29,
        30,
        31,
        32,
        33,
        34,
        35,
        36,
        37,
        38,
        39,
        40,
        41,
        42,
        43,
        44,
        45,
        46,
        47,
        48,
        49,
        50,
        51,
        52,
        53,
        54,
        55,
        56,
        57,
        58,
        59,
        60,
        61,
        62,
        63,
        64,
        65,
        66,
        67,
        68,
        69,
        70,
        71,
        72,
        73,
        74,
        75,
        76,
        77,
        78,
        79,
        80,
        81,
        82,
        83,
        84,
        85,
        86,
        87,
        88,
        89,
        90,
        91,
        92,
        93,
        94,
        95,
        96,
        97,
        98,
        99,
        100,
        101,
        102,
        103,
        104,
        105,
        106,
        107,
        108,
        109,
        110,
        111,
        112,
        113,
        114,
        115,
        116,
        117,
        118,
        119,
        120,
        121,
        122,
        123,
        124,
        125,
        126,
        127,
        128,
        129,
        130,
        131,
        132,
        133,
        134,
        135,
        136,
        137,
        138,
        139,
        140,
        141,
        142,
        143,
        144,
        145,
        146,
        147,
        148,
        149,
        150,
        151,
        152,
        153,
        154,
        155,
        156,
        157,
        158,
        159,
        160,
        161,
        162,
        163,
        164,
        165,
        166,
        167,
        168,
        169,
        170,
        171,
        172,
        173,
        174,
        175,
        176,
        177,
        178,
        179,
        180,
        181,
        182,
        183,
        184,
        185,
        186,
        187,
        188,
        189,
        190,
        191,
        192,
        193,
        194,
        195,
        196,
        197,
        198,
        199,
        200,
        201,
        202,
        203,
        204,
        205,
        206,
        207,
        208,
        209,
        210,
        211,
        212,
        213,
        214,
        215,
        216,
        217,
        218,
        219,
        220,
        221,
        222,
        223,
        224,
        225,
        226,
        227,
        228,
        229,
        230,
        231,
        232,
        233,
        234,
        235,
        236
      ],
      "LargestImagePixelValue": [
        894,
        781,
        799,
        718,
        729,
        716,
        691,
        666,
        722,
        675,
        753,
        921,
        765,
        698,
        653,
