{
  "AcquisitionMatrixPE": 120,
  "AcquisitionNumber": 1,
  "BandwidthPerPixelPhaseEncode": 13.889,
  "BaseResolution": 120,
  "BodyPartExamined": "BRAIN",
  "ConsistencyInfo": "N4_VE11C_LATEST_20160120",
  "ConversionSoftware": "dcm2niix",
  "ConversionSoftwareVersion": "v1.0.20171215 (OpenJPEG build) GCC6.3.0",
  "DerivedVendorReportedEchoSpacing": 0.000599995,
  "DeviceSerialNumber": "66112",
  "DwellTime": 2e-06,
  "EchoTime": 0.103,
  "EchoTrainLength": 120,
  "EffectiveEchoSpacing": 0.000599995,
  "FlipAngle": 90,
  "ImageOrientationPatientDICOM": [
    0.999397,
    0.0345878,
    0.00305282,
    -0.0343758,
    0.997982,
    -0.0533818
  ],
  "ImageType": [
    "ORIGINAL",
    "PRIMARY",
    "DIFFUSION",
    "NONE",
    "ND",
    "NORM",
    "MOSAIC"
  ],
  "InPlanePhaseEncodingDirectionDICOM": "COL",
  "InstitutionAddress": "Maynard_3_Hanover_NH_US_03755",
  "InstitutionName": "Dartmouth_College_-_PBS",
  "InstitutionalDepartmentName": "Department",
  "MRAcquisitionType": "2D",
  "MagneticFieldStrength": 3,
  "Manufacturer": "Siemens",
  "ManufacturersModelName": "Prisma",
  "Modality": "MR",
  "MultibandAccelerationFactor": 4,
  "PartialFourier": 1,
  "PatientPosition": "HFS",
  "PercentPhaseFOV": 100,
  "PhaseEncodingDirection": "j-",
  "PhaseEncodingSteps": 120,
  "PhaseResolution": 1,
  "PixelBandwidth": 2085,
  "ProcedureStepDescription": "Gobbini_Matteo_1038_hyperface",
  "ProtocolName": "dwi_acq-2.0mmXhardi96Xsms4X11b0",
  "PulseSequenceDetails": "%SiemensSeq%_ep2d_diff",
  "ReceiveCoilActiveElements": "HEA;HEP",
  "ReceiveCoilName": "Head_32",
  "ReconMatrixPE": 120,
  "RepetitionTime": 2.6,
  "SAR": 0.299111,
  "ScanOptions": "FS",
  "ScanningSequence": "EP",
  "SequenceName": "_ep_b0",
  "SequenceVariant": "SK_SP",
  "SeriesDescription": "dwi_acq-2.0mmXhardi96Xsms4X11b0",
  "SeriesNumber": 65,
  "ShimSetting": [
    4156,
    -7724,
    -7285,
    701,
    -36,
    -80,
    40,
    102
  ],
  "SliceThickness": 2,
  "SliceTiming": [
    1.935,
    0,
    1.29,
    0.1625,
    1.4525,
    0.3225,
    1.6125,
    0.485,
    1.775,
    0.8075,
    2.0975,
    0.9675,
    2.2575,
    1.13,
    2.42,
    0.645,
    1.935,
    0,
    1.29,
    0.1625,
    1.4525,
    0.3225,
    1.6125,
    0.485,
    1.775,
    0.8075,
    2.0975,
    0.9675,
    2.2575,
    1.13,
    2.42,
    0.645,
    1.935,
    0,
    1.29,
    0.1625,
    1.4525,
    0.3225,
    1.6125,
    0.485,
    1.775,
    0.8075,
    2.0975,
    0.9675,
    2.2575,
    1.13,
    2.42,
    0.645,
    1.935,
    0,
    1.29,
    0.1625,
    1.4525,
    0.3225,
    1.6125,
    0.485,
    1.775,
    0.8075,
    2.0975,
    0.9675,
    2.2575,
    1.13,
    2.42,
    0.645
  ],
  "SoftwareVersions": "syngo_MR_E11",
  "SpacingBetweenSlices": 2,
  "StationName": "AWP66112",
  "TotalReadoutTime": 0.0713994,
  "TxRefAmp": 235.631,
  "time": {
    "samples": {
      "AcquisitionNumber": [
        1,
        2,
        3,
        4,
        5,
        6,
        7,
        8,
        9,
        10,
        11,
        12,
        13,
        14,
        15,
        16,
        17,
        18,
        19,
        20,
        21,
        22,
        23,
        24,
        25,
        26,
        27,
        28,
        29,
        30,
        31,
        32,
        33,
        34,
        35,
        36,
        37,
        38,
        39,
        40,
        41,
        42,
        43,
        44,
        45,
        46,
        47,
        48,
        49,
        50,
        51,
        52,
        53,
        54,
        55,
        56,
        57,
        58,
        59,
        60,
        61,
        62,
        63,
        64,
        65,
        66,
        67,
        68,
        69,
        70,
        71,
        72,
        73,
        74,
        75,
        76,
        77,
        78,
        79,
        80,
        81,
        82,
        83,
        84,
        85,
        86,
        87,
        88,
        89,
        90,
        91,
        92,
        93,
        94,
        95,
        96,
        97,
        98,
        99,
        100,
        101,
        102,
        103,
        104,
        105,
        106,
        107
      ],
      "AcquisitionTime": [
        "115304.520000",
        "115307.120000",
        "115309.720000",
        "115312.320000",
        "115314.920000",
        "115317.520000",
        "115320.120000",
        "115322.720000",
        "115325.320000",
        "115327.920000",
        "115330.520000",
        "115333.120000",
        "115335.720000",
        "115338.320000",
        "115340.920000",
        "115343.520000",
        "115346.120000",
        "115348.720000",
        "115351.320000",
        "115353.920000",
        "115356.520000",
        "115359.120000",
        "115401.720000",
        "115404.320000",
        "115406.920000",
        "115409.520000",
        "115412.120000",
        "115414.720000",
        "115417.320000",
        "115419.920000",
        "115422.520000",
        "115425.120000",
        "115427.720000",
        "115430.320000",
        "115432.920000",
        "115435.520000",
        "115438.120000",
        "115440.720000",
        "115443.320000",
        "115445.920000",
        "115448.520000",
        "115451.120000",
        "115453.720000",
        "115456.320000",
        "115458.920000",
        "115501.520000",
        "115504.120000",
        "115506.720000",
        "115509.320000",
        "115511.920000",
        "115514.520000",
        "115517.120000",
        "115519.720000",
        "115522.320000",
        "115524.920000",
        "115527.520000",
        "115530.120000",
        "115532.720000",
        "115535.320000",
        "115537.920000",
        "115540.520000",
        "115543.120000",
        "115545.720000",
        "115548.320000",
        "115550.920000",
        "115553.520000",
        "115556.120000",
        "115558.720000",
        "115601.320000",
        "115603.920000",
        "115606.520000",
        "115609.120000",
        "115611.720000",
        "115614.320000",
        "115616.920000",
        "115619.520000",
        "115622.120000",
        "115624.720000",
        "115627.320000",
        "115629.920000",
        "115632.520000",
        "115635.120000",
        "115637.720000",
        "115640.320000",
        "115642.920000",
        "115645.520000",
        "115648.120000",
        "115650.720000",
        "115653.320000",
        "115655.920000",
        "115658.520000",
        "115701.120000",
        "115703.720000",
        "115706.320000",
        "115708.920000",
        "115711.520000",
        "115714.120000",
        "115716.720000",
        "115719.320000",
        "115721.920000",
        "115724.520000",
        "115727.120000",
        "115729.720000",
        "115732.320000",
        "115734.920000",
        "115737.520000",
        "115740.120000"
      ],
      "ContentTime": [
        "115405.892000",
        "115405.895000",
        "115405.899000",
        "115405.904000",
        "115405.908000",
        "115405.913000",
        "115405.916000",
        "115405.919000",
        "115405.923000",
        "115405.926000",
        "115405.929000",
        "115405.932000",
        "115405.935000",
        "115405.938000",
        "115405.941000",
        "115405.945000",
        "115405.955000",
        "115405.958000",
        "115405.961000",
        "115405.964000",
        "115405.968000",
        "115405.971000",
        "115405.974000",
        "115405.977000",
        "115505.887000",
        "115505.891000",
        "115505.894000",
        "115505.897000",
        "115505.900000",
        "115505.903000",
        "115505.916000",
        "115505.920000",
        "115505.923000",
        "115505.926000",
        "115505.929000",
        "115505.932000",
        "115505.935000",
        "115505.938000",
        "115505.942000",
        "115505.945000",
        "115505.948000",
        "115505.951000",
        "115505.954000",
        "115505.958000",
        "115505.961000",
        "115505.964000",
        "115505.967000",
        "115605.886000",
        "115605.890000",
        "115605.893000",
        "115605.896000",
        "115605.899000",
        "115605.902000",
        "115605.906000",
        "115605.909000",
        "115605.912000",
        "115605.915000",
        "115605.918000",
        "115605.921000",
        "115605.925000",
        "115605.928000",
        "115605.931000",
        "115605.934000",
        "115605.938000",
        "115605.941000",
        "115605.944000",
        "115605.947000",
        "115605.950000",
        "115605.953000",
        "115605.957000",
        "115705.887000",
        "115705.891000",
        "115705.894000",
        "115705.897000",
        "115705.900000",
        "115705.903000",
        "115705.907000",
        "115705.910000",
        "115705.913000",
        "115705.916000",
        "115705.920000",
        "115705.923000",
        "115705.926000",
        "115705.929000",
        "115705.933000",
        "115705.936000",
        "115705.939000",
        "115705.942000",
        "115705.945000",
        "115705.949000",
        "115705.952000",
        "115705.955000",
        "115705.958000",
        "115741.477000",
        "115741.480000",
        "115741.483000",
        "115741.486000",
        "115741.489000",
        "115741.493000",
        "115741.496000",
        "115741.499000",
        "115741.502000",
        "115741.505000",
        "115741.509000",
        "115741.512000",
        "115741.515000",
        "115741.518000"
      ],
      "InstanceCreationTime": [
        "115405.892000",
        "115405.895000",
        "115405.899000",
        "115405.904000",
        "115405.908000",
        "115405.913000",
        "115405.916000",
        "115405.919000",
        "115405.923000",
        "115405.926000",
        "115405.929000",
        "115405.932000",
        "115405.935000",
        "115405.938000",
        "115405.941000",
        "115405.945000",
        "115405.955000",
        "115405.958000",
        "115405.961000",
        "115405.964000",
        "115405.968000",
        "115405.971000",
        "115405.974000",
        "115405.977000",
        "115505.887000",
        "115505.891000",
        "115505.894000",
        "115505.897000",
        "115505.900000",
        "115505.903000",
        "115505.916000",
        "115505.920000",
        "115505.923000",
        "115505.926000",
        "115505.929000",
        "115505.932000",
        "115505.935000",
        "115505.938000",
        "115505.942000",
        "115505.945000",
        "115505.948000",
        "115505.951000",
        "115505.954000",
        "115505.958000",
        "115505.961000",
        "115505.964000",
        "115505.967000",
        "115605.886000",
        "115605.890000",
        "115605.893000",
        "115605.896000",
        "115605.899000",
        "115605.902000",
        "115605.906000",
        "115605.909000",
        "115605.912000",
        "115605.915000",
        "115605.918000",
        "115605.921000",
        "115605.925000",
        "115605.928000",
        "115605.931000",
        "115605.934000",
        "115605.938000",
        "115605.941000",
        "115605.944000",
        "115605.947000",
        "115605.950000",
        "115605.953000",
        "115605.957000",
        "115705.887000",
        "115705.891000",
        "115705.894000",
        "115705.897000",
        "115705.900000",
        "115705.903000",
        "115705.907000",
        "115705.910000",
        "115705.913000",
        "115705.916000",
        "115705.920000",
        "115705.923000",
        "115705.926000",
        "115705.929000",
        "115705.933000",
        "115705.936000",
        "115705.939000",
        "115705.942000",
        "115705.945000",
        "115705.949000",
        "115705.952000",
        "115705.955000",
        "115705.958000",
        "115741.477000",
        "115741.480000",
        "115741.483000",
        "115741.486000",
        "115741.489000",
        "115741.493000",
        "115741.496000",
        "115741.499000",
        "115741.502000",
        "115741.505000",
        "115741.509000",
        "115741.512000",
        "115741.515000",
        "115741.518000"
      ],
      "InstanceNumber": [
        1,
        2,
        3,
        4,
        5,
        6,
        7,
        8,
        9,
        10,
        11,
        12,
        13,
        14,
        15,
        16,
        17,
        18,
        19,
        20,
        21,
        22,
        23,
        24,
        25,
        26,
        27,
        28,
        29,
        30,
        31,
        32,
        33,
        34,
        35,
        36,
        37,
        38,
        39,
        40,
        41,
        42,
        43,
        44,
        45,
        46,
        47,
        48,
        49,
        50,
        51,
        52,
        53,
        54,
        55,
        56,
        57,
        58,
        59,
        60,
        61,
        62,
        63,
        64,
        65,
        66,
        67,
        68,
        69,
        70,
        71,
        72,
        73,
        74,
        75,
        76,
        77,
        78,
        79,
        80,
        81,
        82,
        83,
        84,
        85,
        86,
        87,
        88,
        89,
        90,
        91,
        92,
        93,
        94,
        95,
        96,
        97,
        98,
        99,
        100,
        101,
        102,
        103,
        104,
        105,
        106,
        107
      ],
      "LargestImagePixelValue": [
        1987,
        2028,
        505,
        517,
        557,
        500,
        538,
        525,
        486,
        485,
        514,
        1984,
        499,
        456,
        478,
        479,
        530,
        480,
        496,
        511,
        520,
        487,
        1916,
        523,
        524,
        489,
        534,
        502,
        513,
        514,
        474,
        498,
        480,
        2291,
        523,
        467,
        547,
        503,
        512,
        501,
        518,
        433,
        510,
        505,
        1960,
        520,
        507,
        475,
        515,
        494,
        445,
        506,
        487,
        480,
        515,
        1984,
        499,
        498,
        474,
        480,
        495,
        452,
        464,
        445,
        457,
        507,
        1815,
        522,
        520,
        471,
        420,
        532,
        549,
        472,
        505,
        474,
        499,
        1994,
        431,
        471,
        528,
        507,
        512,
        534,
        508,
        511,
        471,
        1982,
        461,
        527,
        522,
        525,
        518,
        521,
        464,
        521,
        507,
        2293,
        542,
        524,
        516,
        538,
        477,
        503,
        527,
        479,
        476
      ],
      "SequenceName": [
        "*ep_b0",
        "*ep_b0",
        "*ep_b1000#2",
        "*ep_b1000#3",
        "*ep_b1000#4",
        "*ep_b1000#5",
        "*ep_b1000#6",
        "*ep_b1000#7",
        "*ep_b1000#8",
        "*ep_b1000#9",
        "*ep_b1000#10",
        "*ep_b0",
        "*ep_b1000#12",
        "*ep_b1000#13",
        "*ep_b1000#14",
        "*ep_b1000#15",
        "*ep_b1000#16",
        "*ep_b1000#17",
        "*ep_b1000#18",
        "*ep_b1000#19",
        "*ep_b1000#20",
        "*ep_b1000#21",
        "*ep_b0",
        "*ep_b1000#23",
        "*ep_b1000#24",
        "*ep_b1000#25",
        "*ep_b1000#26",
        "*ep_b1000#27",
        "*ep_b1000#28",
        "*ep_b1000#29",
        "*ep_b1000#30",
        "*ep_b1000#31",
        "*ep_b1000#32",
        "*ep_b0",
        "*ep_b1000#34",
        "*ep_b1000#35",
        "*ep_b1000#36",
        "*ep_b1000#37",
        "*ep_b1000#38",
        "*ep_b1000#39",
        "*ep_b1000#40",
        "*ep_b1000#41",
        "*ep_b1000#42",
        "*ep_b1000#43",
        "*ep_b0",
        "*ep_b1000#45",
        "*ep_b1000#46",
        "*ep_b1000#47",
        "*ep_b1000#48",
        "*ep_b1000#49",
        "*ep_b1000#50",
        "*ep_b1000#51",
        "*ep_b1000#52",
        "*ep_b1000#53",
        "*ep_b1000#54",
        "*ep_b0",
        "*ep_b1000#56",
        "*ep_b1000#57",
        "*ep_b1000#58",
        "*ep_b1000#59",
        "*ep_b1000#60",
        "*ep_b1000#61",
        "*ep_b1000#62",
        "*ep_b1000#63",
        "*ep_b1000#64",
        "*ep_b1000#65",
        "*ep_b0",
        "*ep_b1000#67",
        "*ep_b1000#68",
        "*ep_b1000#69",
        "*ep_b1000#70",
        "*ep_b1000#71",
        "*ep_b1000#72",
        "*ep_b1000#73",
        "*ep_b1000#74",
        "*ep_b1000#75",
        "*ep_b1000#76",
        "*ep_b0",
        "*ep_b1000#78",
        "*ep_b1000#79",
        "*ep_b1000#80",
        "*ep_b1000#81",
        "*ep_b1000#82",
        "*ep_b1000#83",
        "*ep_b1000#84",
        "*ep_b1000#85",
        "*ep_b1000#86",
        "*ep_b0",
        "*ep_b1000#88",
        "*ep_b1000#89",
        "*ep_b1000#90",
        "*ep_b1000#91",
        "*ep_b1000#92",
        "*ep_b1000#93",
        "*ep_b1000#94",
        "*ep_b1000#95",
        "*ep_b1000#96",
        "*ep_b0",
        "*ep_b1000#98",
        "*ep_b1000#99",
        "*ep_b1000#100",
        "*ep_b1000#101",
        "*ep_b1000#102",
        "*ep_b1000#103",
        "*ep_b1000#104",
        "*ep_b1000#105",
        "*ep_b1000#106"
      ],
      "WindowCenter": [
        209,
        209,
        95,
        99,
        97,
        98,
        97,
        96,
        98,
        94,
        98,
        207,
        98,
        96,
        95,
        97,
        98,
        94,
        97,
        99,
        95,
        97,
        206,
        96,
        98,
        96,
        96,
        98,
        95,
        97,
        95,
        97,
        99,
        213,
        97,
        96,
        94,
        98,
        95,
        97,
        97,
        96,
        96,
        98,
        204,
        96,
        96,
        99,
        97,
        96,
        96,
        96,
        96,
        96,
        97,
        206,
        97,
        95,
        97,
        95,
        99,
        97,
        96,
        95,
        96,
        96,
        204,
        96,
        99,
        96,
        95,
        96,
        96,
        97,
        95,
        97,
        96,
        207,
        97,
        96,
        98,
        96,
        98,
        96,
        98,
        97,
        96,
        206,
        96,
        97,
        98,
        98,
        97,
        95,
        98,
        97,
        97,
        213,
        97,
        97,
        96,
        97,
        97,
        97,
        95,
        97,
        95
      ],
      "WindowWidth": [
        500,
        498,
        243,
        251,
        247,
        249,
        247,
        246,
        249,
        240,
        249,
        495,
        249,
        245,
        243,
        248,
        249,
        241,
        248,
        251,
        243,
        248,
        493,
        246,
        251,
        245,
        246,
        249,
        244,
        247,
        242,
        247,
        252,
        501,
        247,
        246,
        241,
        250,
        243,
        248,
        248,
        245,
        245,
        250,
        488,
        244,
        244,
        252,
        246,
        246,
        245,
        246,
        245,
        245,
        247,
        492,
        249,
        243,
        248,
        243,
        251,
        248,
        245,
        243,
        245,
        245,
        489,
        245,
        251,
        245,
        243,
        246,
        244,
        248,
        243,
        247,
        245,
        492,
        247,
        246,
        249,
        245,
        249,
        245,
        249,
        247,
        245,
        491,
        246,
        247,
        249,
        249,
        246,
        242,
        249,
        247,
        247,
        499,
        247,
        247,
        245,
        247,
        247,
        248,
        243,
        247,
        243
      ]
    },
    "slices": {}
  }
}
