{
  "AcquisitionMatrixPE": 96,
  "AcquisitionNumber": 1,
  "BandwidthPerPixelPhaseEncode": 18.939,
  "BaseResolution": 96,
  "BodyPartExamined": "BRAIN",
  "ConsistencyInfo": "N4_VE11C_LATEST_20160120",
  "ConversionSoftware": "dcm2niix",
  "ConversionSoftwareVersion": "v1.0.20171215 (OpenJPEG build) GCC6.3.0",
  "DerivedVendorReportedEchoSpacing": 0.000550011,
  "DeviceSerialNumber": "66112",
  "DwellTime": 2.2e-06,
  "EchoTime": 0.033,
  "EchoTrainLength": 96,
  "EffectiveEchoSpacing": 0.000550011,
  "FlipAngle": 59,
  "ImageOrientationPatientDICOM": [
    0.996673,
    -0.00532555,
    0.0813251,
    0.0071322,
    0.999734,
    -0.0219408
  ],
  "ImageType": [
    "ORIGINAL",
    "PRIMARY",
    "FMRI",
    "NONE",
    "ND",
    "NORM",
    "MOSAIC"
  ],
  "InPlanePhaseEncodingDirectionDICOM": "COL",
  "InstitutionAddress": "Maynard_3_Hanover_NH_US_03755",
  "InstitutionName": "Dartmouth_College_-_PBS",
  "InstitutionalDepartmentName": "Department",
  "MRAcquisitionType": "2D",
  "MagneticFieldStrength": 3,
  "Manufacturer": "Siemens",
  "ManufacturersModelName": "Prisma",
  "Modality": "MR",
  "MultibandAccelerationFactor": 4,
  "PatientPosition": "HFS",
  "PercentPhaseFOV": 100,
  "PhaseEncodingDirection": "j-",
  "PhaseEncodingSteps": 96,
  "PhaseResolution": 1,
  "PixelBandwidth": 2365,
  "ProcedureStepDescription": "Gobbini_Matteo_1038_hyperface",
  "ProtocolName": "func_run-05_task-localizer",
  "PulseSequenceDetails": "%SiemensSeq%_ep2d_bold",
  "ReceiveCoilActiveElements": "HEA;HEP",
  "ReceiveCoilName": "Head_32",
  "ReconMatrixPE": 96,
  "RepetitionTime": 1,
  "SAR": 0.0481139,
  "ScanOptions": "FS",
  "ScanningSequence": "EP",
  "SequenceName": "_epfid2d1_96",
  "SequenceVariant": "SK",
  "SeriesDescription": "func_run-05_task-localizer",
  "SeriesNumber": 35,
  "ShimSetting": [
    4161,
    -7690,
    -7337,
    736,
    -41,
    -79,
    -16,
    40
  ],
  "SliceThickness": 2.5,
  "SliceTiming": [
    0.735,
    0,
    0.49,
    0.0825,
    0.5725,
    0.1625,
    0.6525,
    0.3275,
    0.8175,
    0.4075,
    0.8975,
    0.245,
    0.735,
    0,
    0.49,
    0.0825,
    0.5725,
    0.1625,
    0.6525,
    0.3275,
    0.8175,
    0.4075,
    0.8975,
    0.245,
    0.735,
    0,
    0.49,
    0.0825,
    0.5725,
    0.1625,
    0.6525,
    0.3275,
    0.8175,
    0.4075,
    0.8975,
    0.245,
    0.735,
    0,
    0.49,
    0.0825,
    0.5725,
    0.1625,
    0.6525,
    0.3275,
    0.8175,
    0.4075,
    0.8975,
    0.245
  ],
  "SoftwareVersions": "syngo_MR_E11",
  "SpacingBetweenSlices": 2.5,
  "StationName": "AWP66112",
  "TotalReadoutTime": 0.0522511,
  "TxRefAmp": 229.511,
  "time": {
    "samples": {
      "AcquisitionNumber": [
        1,
        2,
        3,
        4,
        5,
        6,
        7,
        8,
        9,
        10,
        11,
        12,
        13,
        14,
        15,
        16,
        17,
        18,
        19,
        20,
        21,
        22,
        23,
        24,
        25,
        26,
        27,
        28,
        29,
        30,
        31,
        32,
        33,
        34,
        35,
        36,
        37,
        38,
        39,
        40,
        41,
        42,
        43,
        44,
        45,
        46,
        47,
        48,
        49,
        50,
        51,
        52,
        53,
        54,
        55,
        56,
        57,
        58,
        59,
        60,
        61,
        62,
        63,
        64,
        65,
        66,
        67,
        68,
        69,
        70,
        71,
        72,
        73,
        74,
        75,
        76,
        77,
        78,
        79,
        80,
        81,
        82,
        83,
        84,
        85,
        86,
        87,
        88,
        89,
        90,
        91,
        92,
        93,
        94,
        95,
        96,
        97,
        98,
        99,
        100,
        101,
        102,
        103,
        104,
        105,
        106,
        107,
        108,
        109,
        110,
        111,
        112,
        113,
        114,
        115,
        116,
        117,
        118,
        119,
        120,
        121,
        122,
        123,
        124,
        125,
        126,
        127,
        128,
        129,
        130,
        131,
        132,
        133,
        134,
        135,
        136,
        137,
        138,
        139,
        140,
        141,
        142,
        143,
        144,
        145,
        146,
        147,
        148,
        149,
        150,
        151,
        152,
        153,
        154,
        155,
        156,
        157,
        158,
        159,
        160,
        161,
        162,
        163,
        164,
        165,
        166,
        167,
        168,
        169,
        170,
        171,
        172,
        173,
        174,
        175,
        176,
        177,
        178,
        179,
        180,
        181,
        182,
        183,
        184,
        185,
        186,
        187,
        188,
        189,
        190,
        191,
        192,
        193,
        194,
        195,
        196,
        197,
        198,
        199,
        200,
        201,
        202,
        203,
        204,
        205,
        206,
        207,
        208,
        209,
        210,
        211,
        212,
        213,
        214,
        215,
        216,
        217,
        218,
        219,
        220,
        221,
        222,
        223,
        224,
        225,
        226,
        227,
        228,
        229,
        230,
        231,
        232,
        233,
        234,
        235,
        236
      ],
      "AcquisitionTime": [
        "142517.572500",
        "142518.572500",
        "142519.572500",
        "142520.572500",
        "142521.572500",
        "142522.572500",
        "142523.572500",
        "142524.572500",
        "142525.572500",
        "142526.572500",
        "142527.572500",
        "142528.572500",
        "142529.572500",
        "142530.572500",
        "142531.572500",
        "142532.572500",
        "142533.572500",
        "142534.572500",
        "142535.572500",
        "142536.572500",
        "142537.572500",
        "142538.572500",
        "142539.572500",
        "142540.572500",
        "142541.572500",
        "142542.572500",
        "142543.572500",
        "142544.572500",
        "142545.572500",
        "142546.572500",
        "142547.572500",
        "142548.572500",
        "142549.572500",
        "142550.572500",
        "142551.572500",
        "142552.572500",
        "142553.572500",
        "142554.572500",
        "142555.572500",
        "142556.572500",
        "142557.572500",
        "142558.572500",
        "142559.572500",
        "142600.572500",
        "142601.572500",
        "142602.572500",
        "142603.572500",
        "142604.572500",
        "142605.572500",
        "142606.572500",
        "142607.572500",
        "142608.572500",
        "142609.572500",
        "142610.572500",
        "142611.572500",
        "142612.572500",
        "142613.572500",
        "142614.572500",
        "142615.572500",
        "142616.572500",
        "142617.572500",
        "142618.572500",
        "142619.572500",
        "142620.572500",
        "142621.572500",
        "142622.572500",
        "142623.572500",
        "142624.572500",
        "142625.572500",
        "142626.572500",
        "142627.572500",
        "142628.572500",
        "142629.572500",
        "142630.572500",
        "142631.572500",
        "142632.572500",
        "142633.572500",
        "142634.572500",
        "142635.572500",
        "142636.572500",
        "142637.572500",
        "142638.572500",
        "142639.572500",
        "142640.572500",
        "142641.572500",
        "142642.572500",
        "142643.572500",
        "142644.572500",
        "142645.572500",
        "142646.572500",
        "142647.572500",
        "142648.572500",
        "142649.572500",
        "142650.572500",
        "142651.572500",
        "142652.572500",
        "142653.572500",
        "142654.572500",
        "142655.572500",
        "142656.572500",
        "142657.572500",
        "142658.572500",
        "142659.572500",
        "142700.572500",
        "142701.572500",
        "142702.572500",
        "142703.572500",
        "142704.572500",
        "142705.572500",
        "142706.572500",
        "142707.572500",
        "142708.572500",
        "142709.572500",
        "142710.572500",
        "142711.572500",
        "142712.572500",
        "142713.572500",
        "142714.572500",
        "142715.572500",
        "142716.572500",
        "142717.572500",
        "142718.572500",
        "142719.572500",
        "142720.572500",
        "142721.572500",
        "142722.572500",
        "142723.572500",
        "142724.572500",
        "142725.572500",
        "142726.572500",
        "142727.572500",
        "142728.572500",
        "142729.572500",
        "142730.572500",
        "142731.572500",
        "142732.572500",
        "142733.572500",
        "142734.572500",
        "142735.572500",
        "142736.572500",
        "142737.572500",
        "142738.572500",
        "142739.572500",
        "142740.572500",
        "142741.572500",
        "142742.572500",
        "142743.572500",
        "142744.572500",
        "142745.572500",
        "142746.572500",
        "142747.572500",
        "142748.572500",
        "142749.572500",
        "142750.572500",
        "142751.572500",
        "142752.572500",
        "142753.572500",
        "142754.572500",
        "142755.572500",
        "142756.572500",
        "142757.572500",
        "142758.572500",
        "142759.572500",
        "142800.572500",
        "142801.572500",
        "142802.572500",
        "142803.572500",
        "142804.572500",
        "142805.572500",
        "142806.572500",
        "142807.572500",
        "142808.572500",
        "142809.572500",
        "142810.572500",
        "142811.572500",
        "142812.572500",
        "142813.572500",
        "142814.572500",
        "142815.572500",
        "142816.572500",
        "142817.572500",
        "142818.572500",
        "142819.572500",
        "142820.572500",
        "142821.572500",
        "142822.572500",
        "142823.572500",
        "142824.572500",
        "142825.572500",
        "142826.572500",
        "142827.572500",
        "142828.572500",
        "142829.572500",
        "142830.572500",
        "142831.572500",
        "142832.572500",
        "142833.572500",
        "142834.572500",
        "142835.572500",
        "142836.572500",
        "142837.572500",
        "142838.572500",
        "142839.572500",
        "142840.572500",
        "142841.572500",
        "142842.572500",
        "142843.572500",
        "142844.572500",
        "142845.572500",
        "142846.572500",
        "142847.572500",
        "142848.572500",
        "142849.572500",
        "142850.572500",
        "142851.572500",
        "142852.572500",
        "142853.572500",
        "142854.572500",
        "142855.572500",
        "142856.572500",
        "142857.572500",
        "142858.572500",
        "142859.572500",
        "142900.572500",
        "142901.572500",
        "142902.572500",
        "142903.572500",
        "142904.572500",
        "142905.572500",
        "142906.572500",
        "142907.572500",
        "142908.572500",
        "142909.572500",
        "142910.572500",
        "142911.572500",
        "142912.572500"
      ],
      "ContentTime": [
        "142518.743000",
        "142519.510000",
        "142520.495000",
        "142521.507000",
        "142522.499000",
        "142523.491000",
        "142524.502000",
        "142525.506000",
        "142526.469000",
        "142527.502000",
        "142528.513000",
        "142529.480000",
        "142530.478000",
        "142531.508000",
        "142532.484000",
        "142533.495000",
        "142534.529000",
        "142535.477000",
        "142536.491000",
        "142537.509000",
        "142538.494000",
        "142539.491000",
        "142540.484000",
        "142541.475000",
        "142542.465000",
        "142543.483000",
        "142544.481000",
        "142545.468000",
        "142546.470000",
        "142547.490000",
        "142548.476000",
        "142549.499000",
        "142550.490000",
        "142551.479000",
        "142552.486000",
        "142553.500000",
        "142554.541000",
        "142555.484000",
        "142556.499000",
        "142557.469000",
        "142558.498000",
        "142559.479000",
        "142600.487000",
        "142601.464000",
        "142602.494000",
        "142603.475000",
        "142604.487000",
        "142605.485000",
        "142606.512000",
        "142607.518000",
        "142608.475000",
        "142609.468000",
        "142610.492000",
        "142611.515000",
        "142612.485000",
        "142613.489000",
        "142614.489000",
        "142615.492000",
        "142616.490000",
        "142617.478000",
        "142618.487000",
        "142619.470000",
        "142620.476000",
        "142621.492000",
        "142622.482000",
        "142623.484000",
        "142624.512000",
        "142625.499000",
        "142626.475000",
        "142627.489000",
        "142628.483000",
        "142629.461000",
        "142630.486000",
        "142631.483000",
        "142632.511000",
        "142633.478000",
        "142634.481000",
        "142635.491000",
        "142636.502000",
        "142637.506000",
        "142638.491000",
        "142639.476000",
        "142640.486000",
        "142641.497000",
        "142642.489000",
        "142643.530000",
        "142644.479000",
        "142645.489000",
        "142646.476000",
        "142647.468000",
        "142648.449000",
        "142649.510000",
        "142650.495000",
        "142651.484000",
        "142652.503000",
        "142653.492000",
        "142654.469000",
        "142655.471000",
        "142656.497000",
        "142657.481000",
        "142658.479000",
        "142659.489000",
        "142700.477000",
        "142701.490000",
        "142702.496000",
        "142703.495000",
        "142704.492000",
        "142705.491000",
        "142706.478000",
        "142707.533000",
        "142708.484000",
        "142709.492000",
        "142710.498000",
        "142711.496000",
        "142712.498000",
        "142713.484000",
        "142714.517000",
        "142715.498000",
        "142716.509000",
        "142717.518000",
        "142718.522000",
        "142719.494000",
        "142720.497000",
        "142721.495000",
        "142722.497000",
        "142723.497000",
        "142724.526000",
        "142725.521000",
        "142726.529000",
        "142727.490000",
        "142728.484000",
        "142729.493000",
        "142730.496000",
        "142731.512000",
        "142732.487000",
        "142733.531000",
        "142734.515000",
        "142735.506000",
        "142736.547000",
        "142737.504000",
        "142738.541000",
        "142739.504000",
        "142740.533000",
        "142741.563000",
        "142742.528000",
        "142743.537000",
        "142744.493000",
        "142745.477000",
        "142746.481000",
        "142747.484000",
        "142748.504000",
        "142749.493000",
        "142750.510000",
        "142751.507000",
        "142752.501000",
        "142753.485000",
        "142754.466000",
        "142755.499000",
        "142756.499000",
        "142757.482000",
        "142758.506000",
        "142759.500000",
        "142800.546000",
        "142801.500000",
        "142802.500000",
        "142803.533000",
        "142804.511000",
        "142805.500000",
        "142806.526000",
        "142807.483000",
        "142808.503000",
        "142809.490000",
        "142810.514000",
        "142811.497000",
        "142812.499000",
        "142813.482000",
        "142814.491000",
        "142815.496000",
        "142816.498000",
        "142817.489000",
        "142818.498000",
        "142819.489000",
        "142820.551000",
        "142821.513000",
        "142822.537000",
        "142823.500000",
        "142824.514000",
        "142825.497000",
        "142826.524000",
        "142827.546000",
        "142828.479000",
        "142829.489000",
        "142830.488000",
        "142831.513000",
        "142832.498000",
        "142833.499000",
        "142834.519000",
        "142835.497000",
        "142836.474000",
        "142837.487000",
        "142838.480000",
        "142839.551000",
        "142840.508000",
        "142841.520000",
        "142842.515000",
        "142843.508000",
        "142844.494000",
        "142845.494000",
        "142846.500000",
        "142847.478000",
        "142848.545000",
        "142849.496000",
        "142850.510000",
        "142851.485000",
        "142852.499000",
        "142853.507000",
        "142854.508000",
        "142855.503000",
        "142856.555000",
        "142857.493000",
        "142858.484000",
        "142859.489000",
        "142900.488000",
        "142901.487000",
        "142902.489000",
        "142903.508000",
        "142904.530000",
        "142905.491000",
        "142906.508000",
        "142907.487000",
        "142908.487000",
        "142909.487000",
        "142910.489000",
        "142911.499000",
        "142912.521000",
        "142913.508000"
      ],
      "InstanceCreationTime": [
        "142518.743000",
        "142519.510000",
        "142520.495000",
        "142521.507000",
        "142522.499000",
        "142523.491000",
        "142524.502000",
        "142525.506000",
        "142526.469000",
        "142527.502000",
        "142528.513000",
        "142529.480000",
        "142530.478000",
        "142531.508000",
        "142532.484000",
        "142533.495000",
        "142534.529000",
        "142535.477000",
        "142536.491000",
        "142537.509000",
        "142538.494000",
        "142539.491000",
        "142540.484000",
        "142541.475000",
        "142542.465000",
        "142543.483000",
        "142544.481000",
        "142545.468000",
        "142546.470000",
        "142547.490000",
        "142548.476000",
        "142549.499000",
        "142550.490000",
        "142551.479000",
        "142552.486000",
        "142553.500000",
        "142554.541000",
        "142555.484000",
        "142556.499000",
        "142557.469000",
        "142558.498000",
        "142559.479000",
        "142600.487000",
        "142601.464000",
        "142602.494000",
        "142603.475000",
        "142604.487000",
        "142605.485000",
        "142606.512000",
        "142607.518000",
        "142608.475000",
        "142609.468000",
        "142610.492000",
        "142611.515000",
        "142612.485000",
        "142613.489000",
        "142614.489000",
        "142615.492000",
        "142616.490000",
        "142617.478000",
        "142618.487000",
        "142619.470000",
        "142620.476000",
        "142621.492000",
        "142622.482000",
        "142623.484000",
        "142624.512000",
        "142625.499000",
        "142626.475000",
        "142627.489000",
        "142628.483000",
        "142629.461000",
        "142630.486000",
        "142631.483000",
        "142632.511000",
        "142633.478000",
        "142634.481000",
        "142635.491000",
        "142636.502000",
        "142637.506000",
        "142638.491000",
        "142639.476000",
        "142640.486000",
        "142641.497000",
        "142642.489000",
        "142643.530000",
        "142644.479000",
        "142645.489000",
        "142646.476000",
        "142647.468000",
        "142648.449000",
        "142649.510000",
        "142650.495000",
        "142651.484000",
        "142652.503000",
        "142653.492000",
        "142654.469000",
        "142655.471000",
        "142656.497000",
        "142657.481000",
        "142658.479000",
        "142659.489000",
        "142700.477000",
        "142701.490000",
        "142702.496000",
        "142703.495000",
        "142704.492000",
        "142705.491000",
        "142706.478000",
        "142707.533000",
        "142708.484000",
        "142709.492000",
        "142710.498000",
        "142711.496000",
        "142712.498000",
        "142713.484000",
        "142714.517000",
        "142715.498000",
        "142716.509000",
        "142717.518000",
        "142718.522000",
        "142719.494000",
        "142720.497000",
        "142721.495000",
        "142722.497000",
        "142723.497000",
        "142724.526000",
        "142725.521000",
        "142726.529000",
        "142727.490000",
        "142728.484000",
        "142729.493000",
        "142730.496000",
        "142731.512000",
        "142732.487000",
        "142733.531000",
        "142734.515000",
        "142735.506000",
        "142736.547000",
        "142737.504000",
        "142738.541000",
        "142739.504000",
        "142740.533000",
        "142741.563000",
        "142742.528000",
        "142743.537000",
        "142744.493000",
        "142745.477000",
        "142746.481000",
        "142747.484000",
        "142748.504000",
        "142749.493000",
        "142750.510000",
        "142751.507000",
        "142752.501000",
        "142753.485000",
        "142754.466000",
        "142755.499000",
        "142756.499000",
        "142757.482000",
        "142758.506000",
        "142759.500000",
        "142800.546000",
        "142801.500000",
        "142802.500000",
        "142803.533000",
        "142804.511000",
        "142805.500000",
        "142806.526000",
        "142807.483000",
        "142808.503000",
        "142809.490000",
        "142810.514000",
        "142811.497000",
        "142812.499000",
        "142813.482000",
        "142814.491000",
        "142815.496000",
        "142816.498000",
        "142817.489000",
        "142818.498000",
        "142819.489000",
        "142820.551000",
        "142821.513000",
        "142822.537000",
        "142823.500000",
        "142824.514000",
        "142825.497000",
        "142826.524000",
        "142827.546000",
        "142828.479000",
        "142829.489000",
        "142830.488000",
        "142831.513000",
        "142832.498000",
        "142833.499000",
        "142834.519000",
        "142835.497000",
        "142836.474000",
        "142837.487000",
        "142838.480000",
        "142839.551000",
        "142840.508000",
        "142841.520000",
        "142842.515000",
        "142843.508000",
        "142844.494000",
        "142845.494000",
        "142846.500000",
        "142847.478000",
        "142848.545000",
        "142849.496000",
        "142850.510000",
        "142851.485000",
        "142852.499000",
        "142853.507000",
        "142854.508000",
        "142855.503000",
        "142856.555000",
        "142857.493000",
        "142858.484000",
        "142859.489000",
        "142900.488000",
        "142901.487000",
        "142902.489000",
        "142903.508000",
        "142904.530000",
        "142905.491000",
        "142906.508000",
        "142907.487000",
        "142908.487000",
        "142909.487000",
        "142910.489000",
        "142911.499000",
        "142912.521000",
        "142913.508000"
      ],
      "InstanceNumber": [
        1,
        2,
        3,
        4,
        5,
        6,
        7,
        8,
        9,
        10,
        11,
        12,
        13,
        14,
        15,
        16,
        17,
        18,
        19,
        20,
        21,
        22,
        23,
        24,
        25,
        26,
        27,
        28,
        29,
        30,
        31,
        32,
        33,
        34,
        35,
        36,
        37,
        38,
        39,
        40,
        41,
        42,
        43,
        44,
        45,
        46,
        47,
        48,
        49,
        50,
        51,
        52,
        53,
        54,
        55,
        56,
        57,
        58,
        59,
        60,
        61,
        62,
        63,
        64,
        65,
        66,
        67,
        68,
        69,
        70,
        71,
        72,
        73,
        74,
        75,
        76,
        77,
        78,
        79,
        80,
        81,
        82,
        83,
        84,
        85,
        86,
        87,
        88,
        89,
        90,
        91,
        92,
        93,
        94,
        95,
        96,
        97,
        98,
        99,
        100,
        101,
        102,
        103,
        104,
        105,
        106,
        107,
        108,
        109,
        110,
        111,
        112,
        113,
        114,
        115,
        116,
        117,
        118,
        119,
        120,
        121,
        122,
        123,
        124,
        125,
        126,
        127,
        128,
        129,
        130,
        131,
        132,
        133,
        134,
        135,
        136,
        137,
        138,
        139,
        140,
        141,
        142,
        143,
        144,
        145,
        146,
        147,
        148,
        149,
        150,
        151,
        152,
        153,
        154,
        155,
        156,
        157,
        158,
        159,
        160,
        161,
        162,
        163,
        164,
        165,
        166,
        167,
        168,
        169,
        170,
        171,
        172,
        173,
        174,
        175,
        176,
        177,
        178,
        179,
        180,
        181,
        182,
        183,
        184,
        185,
        186,
        187,
        188,
        189,
        190,
        191,
        192,
        193,
        194,
        195,
        196,
        197,
        198,
        199,
        200,
        201,
        202,
        203,
        204,
        205,
        206,
        207,
        208,
        209,
        210,
        211,
        212,
        213,
        214,
        215,
        216,
        217,
        218,
        219,
        220,
        221,
        222,
        223,
        224,
        225,
        226,
        227,
        228,
        229,
        230,
        231,
        232,
        233,
        234,
        235,
        236
      ],
      "LargestImagePixelValue": [
        847,
        833,
        865,
        771,
        824,
        843,
        826,
        787,
        797,
        830,
        802,
        789,
        785,
        810,
        684,
        691,
        718,
        803,
        759,
        724,
        803,
        813,
        780,
        809,
        793,
        730,
        871,
        688,
        713,
        841,
        799,
        859,
        770,
        731,
        810,
        794,
        743,
        813,
        804,
        733,
        851,
        794,
        751,
        813,
        779,
        810,
        809,
        770,
        811,
        819,
        798,
        748,
        792,
        777,
        815,
        757,
        868,
        791,
        806,
        778,
        790,
        870,
        781,
        763,
        824,
        773,
        760,
        860,
        769,
        879,
        834,
        797,
        772,
        863,
        798,
        807,
        810,
        802,
        772,
        828,
        787,
        799,
        843,
        761,
        863,
        799,
        746,
        839,
        849,
        784,
        815,
        705,
        756,
        780,
        773,
        844,
        768,
        853,
        799,
        719,
        796,
        791,
        779,
        830,
        799,
        791,
        828,
        768,
        871,
        788,
        877,
        816,
        791,
        849,
        800,
        870,
        801,
        844,
        817,
        807,
        786,
        780,
        777,
        820,
        776,
        815,
        792,
        796,
        836,
        764,
        843,
        832,
        749,
        802,
        796,
        847,
        771,
        879,
        815,
        792,
        805,
        834,
        765,
        833,
        799,
        804,
        802,
        764,
        853,
        793,
        849,
        839,
        775,
        839,
        791,
        737,
        703,
        727,
        819,
        786,
        863,
        815,
        750,
        852,
        772,
        748,
        856,
        743,
        724,
        841,
        781,
        863,
        821,
        753,
        866,
        793,
        814,
        774,
        780,
        903,
        795,
        739,
        865,
        793,
        781,
        813,
        840,
        813,
        807,
        782,
        830,
        767,
        916,
        809,
        804,
        806,
        783,
        749,
        745,
        778,
        880,
        750,
        729,
        738,
        722,
        770,
        750,
        799,
        807,
        868,
        823,
        773,
        827,
        702,
        774,
        825,
        791,
        813,
        820,
        770,
        869,
        810,
        803,
        824,
        810,
        751,
        772,
        782,
        808,
        809,
        775,
        801,
        770,
        831,
        850,
        774
      ],
      "WindowCenter": [
        334,
        333,
        332,
        331,
        331,
        331,
        331,
        330,
        330,
        331,
        330,
        330,
        330,
        330,
        329,
        331,
        331,
        332,
        331,
        330,
        330,
        330,
        330,
        330,
        331,
        330,
        331,
        329,
        330,
        332,
