{
  "AcquisitionMatrixPE": 96,
  "AcquisitionNumber": 1,
  "BandwidthPerPixelPhaseEncode": 18.939,
  "BaseResolution": 96,
  "BodyPartExamined": "BRAIN",
  "ConsistencyInfo": "N4_VE11C_LATEST_20160120",
  "ConversionSoftware": "dcm2niix",
  "ConversionSoftwareVersion": "v1.0.20171215 (OpenJPEG build) GCC6.3.0",
  "DerivedVendorReportedEchoSpacing": 0.000550011,
  "DeviceSerialNumber": "66112",
  "DwellTime": 2.2e-06,
  "EchoTime": 0.033,
  "EchoTrainLength": 96,
  "EffectiveEchoSpacing": 0.000550011,
  "FlipAngle": 59,
  "ImageOrientationPatientDICOM": [
    0.999397,
    0.0345878,
    0.00305282,
    -0.0343758,
    0.997982,
    -0.0533818
  ],
  "ImageType": [
    "ORIGINAL",
    "PRIMARY",
    "FMRI",
    "NONE",
    "ND",
    "NORM",
    "MOSAIC"
  ],
  "InPlanePhaseEncodingDirectionDICOM": "COL",
  "InstitutionAddress": "Maynard_3_Hanover_NH_US_03755",
  "InstitutionName": "Dartmouth_College_-_PBS",
  "InstitutionalDepartmentName": "Department",
  "MRAcquisitionType": "2D",
  "MagneticFieldStrength": 3,
  "Manufacturer": "Siemens",
  "ManufacturersModelName": "Prisma",
  "Modality": "MR",
  "MultibandAccelerationFactor": 4,
  "PartialFourier": 1,
  "PatientPosition": "HFS",
  "PercentPhaseFOV": 100,
  "PhaseEncodingDirection": "j-",
  "PhaseEncodingSteps": 96,
  "PhaseResolution": 1,
  "PixelBandwidth": 2365,
  "ProcedureStepDescription": "Gobbini_Matteo_1038_hyperface",
  "ProtocolName": "func_run-01_task-localizer",
  "PulseSequenceDetails": "%SiemensSeq%_ep2d_bold",
  "ReceiveCoilActiveElements": "HEA;HEP",
  "ReceiveCoilName": "Head_32",
  "ReconMatrixPE": 96,
  "RepetitionTime": 1,
  "SAR": 0.0524005,
  "ScanOptions": "FS",
  "ScanningSequence": "EP",
  "SequenceName": "_epfid2d1_96",
  "SequenceVariant": "SK",
  "SeriesDescription": "func_run-01_task-localizer",
  "SeriesNumber": 7,
  "ShimSetting": [
    4157,
    -7725,
    -7282,
    707,
    -37,
    -75,
    38,
    108
  ],
  "SliceThickness": 2.5,
  "SliceTiming": [
    0.735,
    0,
    0.49,
    0.0825,
    0.5725,
    0.1625,
    0.6525,
    0.3275,
    0.8175,
    0.4075,
    0.8975,
    0.245,
    0.735,
    0,
    0.49,
    0.0825,
    0.5725,
    0.1625,
    0.6525,
    0.3275,
    0.8175,
    0.4075,
    0.8975,
    0.245,
    0.735,
    0,
    0.49,
    0.0825,
    0.5725,
    0.1625,
    0.6525,
    0.3275,
    0.8175,
    0.4075,
    0.8975,
    0.245,
    0.735,
    0,
    0.49,
    0.0825,
    0.5725,
    0.1625,
    0.6525,
    0.3275,
    0.8175,
    0.4075,
    0.8975,
    0.245
  ],
  "SoftwareVersions": "syngo_MR_E11",
  "SpacingBetweenSlices": 2.5,
  "StationName": "AWP66112",
  "TotalReadoutTime": 0.0522511,
  "TxRefAmp": 235.631,
  "time": {
    "samples": {
      "AcquisitionNumber": [
        1,
        2,
        3,
        4,
        5,
        6,
        7,
        8,
        9,
        10,
        11,
        12,
        13,
        14,
        15,
        16,
        17,
        18,
        19,
        20,
        21,
        22,
        23,
        24,
        25,
        26,
        27,
        28,
        29,
        30,
        31,
        32,
        33,
        34,
        35,
        36,
        37,
        38,
        39,
        40,
        41,
        42,
        43,
        44,
        45,
        46,
        47,
        48,
        49,
        50,
        51,
        52,
        53,
        54,
        55,
        56,
        57,
        58,
        59,
        60,
        61,
        62,
        63,
        64,
        65,
        66,
        67,
        68,
        69,
        70,
        71,
        72,
        73,
        74,
        75,
        76,
        77,
        78,
        79,
        80,
        81,
        82,
        83,
        84,
        85,
        86,
        87,
        88,
        89,
        90,
        91,
        92,
        93,
        94,
        95,
        96,
        97,
        98,
        99,
        100,
        101,
        102,
        103,
        104,
        105,
        106,
        107,
        108,
        109,
        110,
        111,
        112,
        113,
        114,
        115,
        116,
        117,
        118,
        119,
        120,
        121,
        122,
        123,
        124,
        125,
        126,
        127,
        128,
        129,
        130,
        131,
        132,
        133,
        134,
        135,
        136,
        137,
        138,
        139,
        140,
        141,
        142,
        143,
        144,
        145,
        146,
        147,
        148,
        149,
        150,
        151,
        152,
        153,
        154,
        155,
        156,
        157,
        158,
        159,
        160,
        161,
        162,
        163,
        164,
        165,
        166,
        167,
        168,
        169,
        170,
        171,
        172,
        173,
        174,
        175,
        176,
        177,
        178,
        179,
        180,
        181,
        182,
        183,
        184,
        185,
        186,
        187,
        188,
        189,
        190,
        191,
        192,
        193,
        194,
        195,
        196,
        197,
        198,
        199,
        200,
        201,
        202,
        203,
        204,
        205,
        206,
        207,
        208,
        209,
        210,
        211,
        212,
        213,
        214,
        215,
        216,
        217,
        218,
        219,
        220,
        221,
        222,
        223,
        224,
        225,
        226,
        227,
        228,
        229,
        230,
        231,
        232,
        233,
        234,
        235,
        236
      ],
      "AcquisitionTime": [
        "110938.940000",
        "110939.940000",
        "110940.940000",
        "110941.940000",
        "110942.940000",
        "110943.940000",
        "110944.940000",
        "110945.940000",
        "110946.940000",
        "110947.940000",
        "110948.940000",
        "110949.940000",
        "110950.940000",
        "110951.940000",
        "110952.940000",
        "110953.940000",
        "110954.940000",
        "110955.940000",
        "110956.940000",
        "110957.940000",
        "110958.940000",
        "110959.940000",
        "111000.940000",
        "111001.940000",
        "111002.940000",
        "111003.940000",
        "111004.940000",
        "111005.940000",
        "111006.940000",
        "111007.940000",
        "111008.940000",
        "111009.940000",
        "111010.940000",
        "111011.940000",
        "111012.940000",
        "111013.940000",
        "111014.940000",
        "111015.940000",
        "111016.940000",
        "111017.940000",
        "111018.940000",
        "111019.940000",
        "111020.940000",
        "111021.940000",
        "111022.940000",
        "111023.940000",
        "111024.940000",
        "111025.940000",
        "111026.940000",
        "111027.940000",
        "111028.940000",
        "111029.940000",
        "111030.940000",
        "111031.940000",
        "111032.940000",
        "111033.940000",
        "111034.940000",
        "111035.940000",
        "111036.940000",
        "111037.940000",
        "111038.940000",
        "111039.940000",
        "111040.940000",
        "111041.940000",
        "111042.940000",
        "111043.940000",
        "111044.940000",
        "111045.940000",
        "111046.940000",
        "111047.940000",
        "111048.940000",
        "111049.940000",
        "111050.940000",
        "111051.940000",
        "111052.940000",
        "111053.940000",
        "111054.940000",
        "111055.940000",
        "111056.940000",
        "111057.940000",
        "111058.940000",
        "111059.940000",
        "111100.940000",
        "111101.940000",
        "111102.940000",
        "111103.940000",
        "111104.940000",
        "111105.940000",
        "111106.940000",
        "111107.940000",
        "111108.940000",
        "111109.940000",
        "111110.940000",
        "111111.940000",
        "111112.940000",
        "111113.940000",
        "111114.940000",
        "111115.940000",
        "111116.940000",
        "111117.940000",
        "111118.940000",
        "111119.940000",
        "111120.940000",
        "111121.940000",
        "111122.940000",
        "111123.940000",
        "111124.940000",
        "111125.940000",
        "111126.940000",
        "111127.940000",
        "111128.940000",
        "111129.940000",
        "111130.940000",
        "111131.940000",
        "111132.940000",
        "111133.940000",
        "111134.940000",
        "111135.940000",
        "111136.940000",
        "111137.940000",
        "111138.940000",
        "111139.940000",
        "111140.940000",
        "111141.940000",
        "111142.940000",
        "111143.940000",
        "111144.940000",
        "111145.940000",
        "111146.940000",
        "111147.940000",
        "111148.940000",
        "111149.940000",
        "111150.940000",
        "111151.940000",
        "111152.940000",
        "111153.940000",
        "111154.940000",
        "111155.940000",
        "111156.940000",
        "111157.940000",
        "111158.940000",
        "111159.940000",
        "111200.940000",
        "111201.940000",
        "111202.940000",
        "111203.940000",
        "111204.940000",
        "111205.940000",
        "111206.940000",
        "111207.940000",
        "111208.940000",
        "111209.940000",
        "111210.940000",
        "111211.940000",
        "111212.940000",
        "111213.940000",
        "111214.940000",
        "111215.940000",
        "111216.940000",
        "111217.940000",
        "111218.940000",
        "111219.940000",
        "111220.940000",
        "111221.940000",
        "111222.940000",
        "111223.940000",
        "111224.940000",
        "111225.940000",
        "111226.940000",
        "111227.940000",
        "111228.940000",
        "111229.940000",
        "111230.940000",
        "111231.940000",
        "111232.940000",
        "111233.940000",
        "111234.940000",
        "111235.940000",
        "111236.940000",
        "111237.940000",
        "111238.940000",
        "111239.940000",
        "111240.940000",
        "111241.940000",
        "111242.940000",
        "111243.940000",
        "111244.940000",
        "111245.940000",
        "111246.940000",
        "111247.940000",
        "111248.940000",
        "111249.940000",
        "111250.940000",
        "111251.940000",
        "111252.940000",
        "111253.940000",
        "111254.940000",
        "111255.940000",
        "111256.940000",
        "111257.940000",
        "111258.940000",
        "111259.940000",
        "111300.940000",
        "111301.940000",
        "111302.940000",
        "111303.940000",
        "111304.940000",
        "111305.940000",
        "111306.940000",
        "111307.940000",
        "111308.940000",
        "111309.940000",
        "111310.940000",
        "111311.940000",
        "111312.940000",
        "111313.940000",
        "111314.940000",
        "111315.940000",
        "111316.940000",
        "111317.940000",
        "111318.940000",
        "111319.940000",
        "111320.940000",
        "111321.940000",
        "111322.940000",
        "111323.940000",
        "111324.940000",
        "111325.940000",
        "111326.940000",
        "111327.940000",
        "111328.940000",
        "111329.940000",
        "111330.940000",
        "111331.940000",
        "111332.940000",
        "111333.940000"
      ],
      "ContentTime": [
        "110940.424000",
        "110941.266000",
        "110942.282000",
        "110943.263000",
        "110944.276000",
        "110945.306000",
        "110946.275000",
        "110947.275000",
        "110948.270000",
        "110949.277000",
        "110950.287000",
        "110951.257000",
        "110952.262000",
        "110953.249000",
        "110954.272000",
        "110955.264000",
        "110956.253000",
        "110957.323000",
        "110958.268000",
        "110959.287000",
        "111000.277000",
        "111001.265000",
        "111002.275000",
        "111003.254000",
        "111004.267000",
        "111005.262000",
        "111006.274000",
        "111007.248000",
        "111008.263000",
        "111009.291000",
        "111010.276000",
        "111011.321000",
        "111012.272000",
        "111013.247000",
        "111014.262000",
        "111015.274000",
        "111016.281000",
        "111017.249000",
        "111018.307000",
        "111019.276000",
        "111020.267000",
        "111021.287000",
        "111022.272000",
        "111023.267000",
        "111024.244000",
        "111025.263000",
        "111026.259000",
        "111027.270000",
        "111028.260000",
        "111029.258000",
        "111030.279000",
        "111031.290000",
        "111032.277000",
        "111033.279000",
        "111034.258000",
        "111035.241000",
        "111036.258000",
        "111037.296000",
        "111038.271000",
        "111039.272000",
        "111040.280000",
        "111041.268000",
        "111042.303000",
        "111043.260000",
        "111044.266000",
        "111045.267000",
        "111046.285000",
        "111047.270000",
        "111048.265000",
        "111049.270000",
        "111050.275000",
        "111051.289000",
        "111052.270000",
        "111053.264000",
        "111054.275000",
        "111055.268000",
        "111056.243000",
        "111057.276000",
        "111058.294000",
        "111059.286000",
        "111100.332000",
        "111101.272000",
        "111102.257000",
        "111103.296000",
        "111104.293000",
        "111105.257000",
        "111106.261000",
        "111107.304000",
        "111108.271000",
        "111109.242000",
        "111110.255000",
        "111111.270000",
        "111112.275000",
        "111113.287000",
        "111114.269000",
        "111115.280000",
        "111116.286000",
        "111117.306000",
        "111118.254000",
        "111119.265000",
        "111120.249000",
        "111121.289000",
        "111122.262000",
        "111123.283000",
        "111124.261000",
        "111125.263000",
        "111126.278000",
        "111127.272000",
        "111128.284000",
        "111129.286000",
        "111130.281000",
        "111131.285000",
        "111132.276000",
        "111133.268000",
        "111134.255000",
        "111135.286000",
        "111136.267000",
        "111137.273000",
        "111138.304000",
        "111139.277000",
        "111140.263000",
        "111141.287000",
        "111142.276000",
        "111143.265000",
        "111144.291000",
        "111145.291000",
        "111146.284000",
        "111147.284000",
        "111148.266000",
        "111149.272000",
        "111150.267000",
        "111151.308000",
        "111152.279000",
        "111153.282000",
        "111154.271000",
        "111155.256000",
        "111156.268000",
        "111157.266000",
        "111158.323000",
        "111159.305000",
        "111200.289000",
        "111201.283000",
        "111202.317000",
        "111203.342000",
        "111204.308000",
        "111205.270000",
        "111206.278000",
        "111207.288000",
        "111208.269000",
        "111209.272000",
        "111210.304000",
        "111211.292000",
        "111212.266000",
        "111213.297000",
        "111214.248000",
        "111215.274000",
        "111216.245000",
        "111217.275000",
        "111218.291000",
        "111219.256000",
        "111220.259000",
        "111221.275000",
        "111222.273000",
        "111223.246000",
        "111224.316000",
        "111225.262000",
        "111226.285000",
        "111227.290000",
        "111228.307000",
        "111229.282000",
        "111230.290000",
        "111231.264000",
        "111232.264000",
        "111233.270000",
        "111234.284000",
        "111235.258000",
        "111236.286000",
        "111237.280000",
        "111238.289000",
        "111239.276000",
        "111240.271000",
        "111241.281000",
        "111242.264000",
        "111243.336000",
        "111244.284000",
        "111245.285000",
        "111246.260000",
        "111247.274000",
        "111248.313000",
        "111249.270000",
        "111250.283000",
        "111251.268000",
        "111252.293000",
        "111253.286000",
        "111254.302000",
        "111255.290000",
        "111256.270000",
        "111257.309000",
        "111258.305000",
        "111259.289000",
        "111300.273000",
        "111301.270000",
        "111302.267000",
        "111303.264000",
        "111304.283000",
        "111305.273000",
        "111306.282000",
        "111307.274000",
        "111308.248000",
        "111309.264000",
        "111310.269000",
        "111311.252000",
        "111312.267000",
        "111313.269000",
        "111314.258000",
        "111315.327000",
        "111316.286000",
        "111317.281000",
        "111318.281000",
        "111319.277000",
        "111320.309000",
        "111321.290000",
        "111322.285000",
        "111323.295000",
        "111324.275000",
        "111325.275000",
        "111326.282000",
        "111327.264000",
        "111328.301000",
        "111329.283000",
        "111330.269000",
        "111331.273000",
        "111332.279000",
        "111333.265000",
        "111334.289000",
        "111335.285000"
      ],
      "InstanceCreationTime": [
        "110940.424000",
        "110941.266000",
        "110942.282000",
        "110943.263000",
        "110944.276000",
        "110945.306000",
        "110946.275000",
        "110947.275000",
        "110948.270000",
        "110949.277000",
        "110950.287000",
        "110951.257000",
        "110952.262000",
        "110953.249000",
        "110954.272000",
        "110955.264000",
        "110956.253000",
        "110957.323000",
        "110958.268000",
        "110959.287000",
        "111000.277000",
        "111001.265000",
        "111002.275000",
        "111003.254000",
        "111004.267000",
        "111005.262000",
        "111006.274000",
        "111007.248000",
        "111008.263000",
        "111009.291000",
        "111010.276000",
        "111011.321000",
        "111012.272000",
        "111013.247000",
        "111014.262000",
        "111015.274000",
        "111016.281000",
        "111017.249000",
        "111018.307000",
        "111019.276000",
        "111020.267000",
        "111021.287000",
        "111022.272000",
        "111023.267000",
        "111024.244000",
        "111025.263000",
        "111026.259000",
        "111027.270000",
        "111028.260000",
        "111029.258000",
        "111030.279000",
        "111031.290000",
        "111032.277000",
        "111033.279000",
        "111034.258000",
        "111035.241000",
        "111036.258000",
        "111037.296000",
        "111038.271000",
        "111039.272000",
        "111040.280000",
        "111041.268000",
        "111042.303000",
        "111043.260000",
        "111044.266000",
        "111045.267000",
        "111046.285000",
        "111047.270000",
        "111048.265000",
        "111049.270000",
        "111050.275000",
        "111051.289000",
        "111052.270000",
        "111053.264000",
        "111054.275000",
        "111055.268000",
        "111056.243000",
        "111057.276000",
        "111058.294000",
        "111059.286000",
        "111100.332000",
        "111101.272000",
        "111102.257000",
        "111103.296000",
        "111104.293000",
        "111105.257000",
        "111106.261000",
        "111107.304000",
        "111108.271000",
        "111109.242000",
        "111110.255000",
        "111111.270000",
        "111112.275000",
        "111113.287000",
        "111114.269000",
        "111115.280000",
        "111116.286000",
        "111117.306000",
        "111118.254000",
        "111119.265000",
        "111120.249000",
        "111121.289000",
        "111122.262000",
        "111123.283000",
        "111124.261000",
        "111125.263000",
        "111126.278000",
        "111127.272000",
        "111128.284000",
        "111129.286000",
        "111130.281000",
        "111131.285000",
        "111132.276000",
        "111133.268000",
        "111134.255000",
        "111135.286000",
        "111136.267000",
        "111137.273000",
        "111138.304000",
        "111139.277000",
        "111140.263000",
        "111141.287000",
        "111142.276000",
        "111143.265000",
        "111144.291000",
        "111145.291000",
        "111146.284000",
        "111147.284000",
        "111148.266000",
        "111149.272000",
        "111150.267000",
        "111151.308000",
        "111152.279000",
        "111153.282000",
        "111154.271000",
        "111155.256000",
        "111156.268000",
        "111157.266000",
        "111158.323000",
        "111159.305000",
        "111200.289000",
        "111201.283000",
        "111202.317000",
        "111203.342000",
        "111204.308000",
        "111205.270000",
        "111206.278000",
        "111207.288000",
        "111208.269000",
        "111209.272000",
        "111210.304000",
        "111211.292000",
        "111212.266000",
        "111213.297000",
        "111214.248000",
        "111215.274000",
        "111216.245000",
        "111217.275000",
        "111218.291000",
        "111219.256000",
        "111220.259000",
        "111221.275000",
        "111222.273000",
        "111223.246000",
        "111224.316000",
        "111225.262000",
        "111226.285000",
        "111227.290000",
        "111228.307000",
        "111229.282000",
        "111230.290000",
        "111231.264000",
        "111232.264000",
        "111233.270000",
        "111234.284000",
        "111235.258000",
        "111236.286000",
        "111237.280000",
        "111238.289000",
        "111239.276000",
        "111240.271000",
        "111241.281000",
        "111242.264000",
        "111243.336000",
        "111244.284000",
        "111245.285000",
        "111246.260000",
        "111247.274000",
        "111248.313000",
        "111249.270000",
        "111250.283000",
        "111251.268000",
        "111252.293000",
        "111253.286000",
        "111254.302000",
        "111255.290000",
        "111256.270000",
        "111257.309000",
        "111258.305000",
        "111259.289000",
        "111300.273000",
        "111301.270000",
        "111302.267000",
        "111303.264000",
        "111304.283000",
        "111305.273000",
        "111306.282000",
        "111307.274000",
        "111308.248000",
        "111309.264000",
        "111310.269000",
        "111311.252000",
        "111312.267000",
        "111313.269000",
        "111314.258000",
        "111315.327000",
        "111316.286000",
        "111317.281000",
        "111318.281000",
        "111319.277000",
        "111320.309000",
        "111321.290000",
        "111322.285000",
        "111323.295000",
        "111324.275000",
        "111325.275000",
        "111326.282000",
        "111327.264000",
        "111328.301000",
        "111329.283000",
        "111330.269000",
        "111331.273000",
        "111332.279000",
        "111333.265000",
        "111334.289000",
        "111335.285000"
      ],
      "InstanceNumber": [
        1,
        2,
        3,
        4,
        5,
        6,
        7,
        8,
        9,
        10,
        11,
        12,
        13,
        14,
        15,
        16,
        17,
        18,
        19,
        20,
        21,
        22,
        23,
        24,
        25,
        26,
        27,
        28,
        29,
        30,
        31,
        32,
        33,
        34,
        35,
        36,
        37,
        38,
        39,
        40,
        41,
        42,
        43,
        44,
        45,
        46,
        47,
        48,
        49,
        50,
        51,
        52,
        53,
        54,
        55,
        56,
        57,
        58,
        59,
        60,
        61,
        62,
        63,
        64,
        65,
        66,
        67,
        68,
        69,
        70,
        71,
        72,
        73,
        74,
        75,
        76,
        77,
        78,
        79,
        80,
        81,
        82,
        83,
        84,
        85,
        86,
        87,
        88,
        89,
        90,
        91,
        92,
        93,
        94,
        95,
        96,
        97,
        98,
        99,
        100,
        101,
        102,
        103,
        104,
        105,
        106,
        107,
        108,
        109,
        110,
        111,
        112,
        113,
        114,
        115,
        116,
        117,
        118,
        119,
        120,
        121,
        122,
        123,
        124,
        125,
        126,
        127,
        128,
        129,
        130,
        131,
        132,
        133,
        134,
        135,
        136,
        137,
        138,
        139,
        140,
        141,
        142,
        143,
        144,
        145,
        146,
        147,
        148,
        149,
        150,
        151,
        152,
        153,
        154,
        155,
        156,
        157,
        158,
        159,
        160,
        161,
        162,
        163,
        164,
        165,
        166,
        167,
        168,
        169,
        170,
        171,
        172,
        173,
        174,
        175,
        176,
        177,
        178,
        179,
        180,
        181,
        182,
        183,
        184,
        185,
        186,
        187,
        188,
        189,
        190,
        191,
        192,
        193,
        194,
        195,
        196,
        197,
        198,
        199,
        200,
        201,
        202,
        203,
        204,
        205,
        206,
        207,
        208,
        209,
        210,
        211,
        212,
        213,
        214,
        215,
        216,
        217,
        218,
        219,
        220,
        221,
        222,
        223,
        224,
        225,
        226,
        227,
        228,
        229,
        230,
        231,
        232,
        233,
        234,
        235,
        236
      ],
      "LargestImagePixelValue": [
        977,
        655,
        637,
        787,
        1014,
        820,
        638,
        730,
        878,
        938,
        959,
        650,
        663,
        760,
        937,
        889,
        669,
        646,
        798,
        930,
        796,
        623,
        681,
        665,
        748,
        793,
        941,
        657,
        653,
        632,
        812,
        958,
        744,
        663,
        729,
        885,
        1004,
        862,
        686,
        661,
        680,
        780,
        824,
        650,
        657,
        639,
        738,
        787,
        795,
        612,
        659,
        629,
        776,
        812,
        639,
        639,
        785,
        878,
        1039,
        992,
        658,
        652,
        837,
        650,
        678,
        961,
        878,
        674,
        654,
        844,
        964,
        687,
        633,
        624,
        706,
        740,
        632,
        642,
        727,
        789,
        814,
        643,
        632,
        770,
        977,
        855,
        643,
        652,
        810,
        972,
        1028,
        641,
        660,
        654,
        790,
        814,
        990,
        640,
        654,
        628,
        771,
        843,
        668,
        656,
        632,
        772,
        927,
        636,
        641,
        731,
        835,
        818,
        643,
        646,
        721,
        780,
        952,
        836,
        638,
        626,
        731,
        766,
        808,
        638,
        668,
        680,
        864,
        945,
        818,
        621,
        627,
        757,
        929,
        766,
        632,
        638,
        738,
        776,
        773,
        642,
        634,
        740,
        860,
        812,
        645,
        630,
        746,
        881,
        873,
        633,
        630,
        775,
        990,
        770,
        635,
        651,
        665,
        709,
        792,
        633,
        658,
        731,
        746,
        781,
        638,
        619,
        757,
        833,
        645,
        650,
        857,
        703,
        660,
        806,
        940,
        706,
        786,
        987,
        1072,
        1029,
        643,
        669,
        738,
        927,
        775,
        684,
        667,
        897,
        1029,
        656,
        653,
        644,
        819,
        789,
        1016,
        949,
        692,
        687,
        633,
        672,
        809,
        656,
        663,
        653,
        847,
        924,
        996,
        659,
        665,
        691,
        767,
        961,
        832,
        672,
        631,
        832,
        832,
        691,
        634,
        725,
        694,
        748,
        783,
        740,
        745,
        767,
        793,
        821,
        858,
        666,
        708,
        690,
        799,
        963,
        744,
        621
      ],
      "WindowCenter": [
        339,
        335,
        335,
        337,
        339,
        337,
        335,
        336,
        337,
        337,
        337,
        334,
        335,
        336,
        338,
        337,
        334,
        334,
        336,
        337,
        336,
        333,
        334,
        334,
        336,
        336,
        337,
        334,
