{
  "AcquisitionMatrixPE": 96,
  "AcquisitionNumber": 1,
  "BandwidthPerPixelPhaseEncode": 18.939,
  "BaseResolution": 96,
  "BodyPartExamined": "BRAIN",
  "ConsistencyInfo": "N4_VE11C_LATEST_20160120",
  "ConversionSoftware": "dcm2niix",
  "ConversionSoftwareVersion": "v1.0.20171215 (OpenJPEG build) GCC6.3.0",
  "DerivedVendorReportedEchoSpacing": 0.000550011,
  "DeviceSerialNumber": "66112",
  "DwellTime": 2.2e-06,
  "EchoTime": 0.033,
  "EchoTrainLength": 96,
  "EffectiveEchoSpacing": 0.000550011,
  "FlipAngle": 59,
  "ImageOrientationPatientDICOM": [
    0.999397,
    0.0345878,
    0.00305282,
    -0.0343758,
    0.997982,
    -0.0533818
  ],
  "ImageType": [
    "ORIGINAL",
    "PRIMARY",
    "FMRI",
    "NONE",
    "ND",
    "NORM",
    "MOSAIC"
  ],
  "InPlanePhaseEncodingDirectionDICOM": "COL",
  "InstitutionAddress": "Maynard_3_Hanover_NH_US_03755",
  "InstitutionName": "Dartmouth_College_-_PBS",
  "InstitutionalDepartmentName": "Department",
  "MRAcquisitionType": "2D",
  "MagneticFieldStrength": 3,
  "Manufacturer": "Siemens",
  "ManufacturersModelName": "Prisma",
  "Modality": "MR",
  "MultibandAccelerationFactor": 4,
  "PatientPosition": "HFS",
  "PercentPhaseFOV": 100,
  "PhaseEncodingDirection": "j-",
  "PhaseEncodingSteps": 96,
  "PhaseResolution": 1,
  "PixelBandwidth": 2365,
  "ProcedureStepDescription": "Gobbini_Matteo_1038_hyperface",
  "ProtocolName": "func_run-06_task-visualmemory",
  "PulseSequenceDetails": "%SiemensSeq%_ep2d_bold",
  "ReceiveCoilActiveElements": "HEA;HEP",
  "ReceiveCoilName": "Head_32",
  "ReconMatrixPE": 96,
  "RepetitionTime": 1,
  "SAR": 0.0525261,
  "ScanOptions": "FS",
  "ScanningSequence": "EP",
  "SequenceName": "_epfid2d1_96",
  "SequenceVariant": "SK",
  "SeriesDescription": "func_run-06_task-visualmemory",
  "SeriesNumber": 42,
  "ShimSetting": [
    4157,
    -7725,
    -7282,
    707,
    -37,
    -75,
    38,
    108
  ],
  "SliceThickness": 2.5,
  "SliceTiming": [
    0.735,
    0,
    0.49,
    0.0825,
    0.5725,
    0.1625,
    0.6525,
    0.3275,
    0.8175,
    0.4075,
    0.8975,
    0.245,
    0.735,
    0,
    0.49,
    0.0825,
    0.5725,
    0.1625,
    0.6525,
    0.3275,
    0.8175,
    0.4075,
    0.8975,
    0.245,
    0.735,
    0,
    0.49,
    0.0825,
    0.5725,
    0.1625,
    0.6525,
    0.3275,
    0.8175,
    0.4075,
    0.8975,
    0.245,
    0.735,
    0,
    0.49,
    0.0825,
    0.5725,
    0.1625,
    0.6525,
    0.3275,
    0.8175,
    0.4075,
    0.8975,
    0.245
  ],
  "SoftwareVersions": "syngo_MR_E11",
  "SpacingBetweenSlices": 2.5,
  "StationName": "AWP66112",
  "TotalReadoutTime": 0.0522511,
  "TxRefAmp": 235.631,
  "time": {
    "samples": {
      "AcquisitionNumber": [
        1,
        2,
        3,
        4,
        5,
        6,
        7,
        8,
        9,
        10,
        11,
        12,
        13,
        14,
        15,
        16,
        17,
        18,
        19,
        20,
        21,
        22,
        23,
        24,
        25,
        26,
        27,
        28,
        29,
        30,
        31,
        32,
        33,
        34,
        35,
        36,
        37,
        38,
        39,
        40,
        41,
        42,
        43,
        44,
        45,
        46,
        47,
        48,
        49,
        50,
        51,
        52,
        53,
        54,
        55,
        56,
        57,
        58,
        59,
        60,
        61,
        62,
        63,
        64,
        65,
        66,
        67,
        68,
        69,
        70,
        71,
        72,
        73,
        74,
        75,
        76,
        77,
        78,
        79,
        80,
        81,
        82,
        83,
        84,
        85,
        86,
        87,
        88,
        89,
        90,
        91,
        92,
        93,
        94,
        95,
        96,
        97,
        98,
        99,
        100,
        101,
        102,
        103,
        104,
        105,
        106,
        107,
        108,
        109,
        110,
        111,
        112,
        113,
        114,
        115,
        116,
        117,
        118,
        119,
        120,
        121,
        122,
        123,
        124,
        125,
        126,
        127,
        128,
        129,
        130,
        131,
        132,
        133,
        134,
        135,
        136,
        137,
        138,
        139,
        140,
        141,
        142,
        143,
        144,
        145,
        146,
        147,
        148,
        149,
        150,
        151,
        152,
        153,
        154,
        155,
        156,
        157,
        158,
        159,
        160,
        161,
        162,
        163,
        164,
        165,
        166,
        167,
        168,
        169,
        170,
        171,
        172,
        173,
        174,
        175,
        176,
        177,
        178,
        179,
        180,
        181,
        182,
        183,
        184,
        185,
        186,
        187,
        188,
        189,
        190,
        191,
        192,
        193,
        194,
        195,
        196,
        197,
        198,
        199,
        200,
        201,
        202,
        203,
        204,
        205,
        206,
        207,
        208,
        209,
        210,
        211,
        212,
        213,
        214,
        215,
        216,
        217,
        218,
        219,
        220,
        221,
        222,
        223,
        224,
        225,
        226,
        227,
        228,
        229,
        230,
        231,
        232,
        233,
        234,
        235,
        236,
        237,
        238,
        239,
        240,
        241,
        242,
        243,
        244,
        245,
        246,
        247,
        248,
        249,
        250,
        251,
        252,
        253,
        254,
        255,
        256,
        257,
        258,
        259,
        260,
        261,
        262,
        263,
        264,
        265,
        266,
        267,
        268,
        269,
        270,
        271,
        272,
        273,
        274,
        275,
        276,
        277,
        278,
        279,
        280,
        281,
        282,
        283,
        284,
        285,
        286,
        287,
        288
      ],
      "AcquisitionTime": [
        "113446.472500",
        "113447.472500",
        "113448.472500",
        "113449.472500",
        "113450.472500",
        "113451.472500",
        "113452.472500",
        "113453.472500",
        "113454.472500",
        "113455.472500",
        "113456.472500",
        "113457.472500",
        "113458.472500",
        "113459.472500",
        "113500.472500",
        "113501.472500",
        "113502.472500",
        "113503.472500",
        "113504.472500",
        "113505.472500",
        "113506.472500",
        "113507.472500",
        "113508.472500",
        "113509.472500",
        "113510.472500",
        "113511.472500",
        "113512.472500",
        "113513.472500",
        "113514.472500",
        "113515.472500",
        "113516.472500",
        "113517.472500",
        "113518.472500",
        "113519.472500",
        "113520.472500",
        "113521.472500",
        "113522.472500",
        "113523.472500",
        "113524.472500",
        "113525.472500",
        "113526.472500",
        "113527.472500",
        "113528.472500",
        "113529.472500",
        "113530.472500",
        "113531.472500",
        "113532.472500",
        "113533.472500",
        "113534.472500",
        "113535.472500",
        "113536.472500",
        "113537.472500",
        "113538.472500",
        "113539.472500",
        "113540.472500",
        "113541.472500",
        "113542.472500",
        "113543.472500",
        "113544.472500",
        "113545.472500",
        "113546.472500",
        "113547.472500",
        "113548.472500",
        "113549.472500",
        "113550.472500",
        "113551.472500",
        "113552.472500",
        "113553.472500",
        "113554.472500",
        "113555.472500",
        "113556.472500",
        "113557.472500",
        "113558.472500",
        "113559.472500",
        "113600.472500",
        "113601.472500",
        "113602.472500",
        "113603.472500",
        "113604.472500",
        "113605.472500",
        "113606.472500",
        "113607.472500",
        "113608.472500",
        "113609.472500",
        "113610.472500",
        "113611.472500",
        "113612.472500",
        "113613.472500",
        "113614.472500",
        "113615.472500",
        "113616.472500",
        "113617.472500",
        "113618.472500",
        "113619.472500",
        "113620.472500",
        "113621.472500",
        "113622.472500",
        "113623.472500",
        "113624.472500",
        "113625.472500",
        "113626.472500",
        "113627.472500",
        "113628.472500",
        "113629.472500",
        "113630.472500",
        "113631.472500",
        "113632.472500",
        "113633.472500",
        "113634.472500",
        "113635.472500",
        "113636.472500",
        "113637.472500",
        "113638.472500",
        "113639.472500",
        "113640.472500",
        "113641.472500",
        "113642.472500",
        "113643.472500",
        "113644.472500",
        "113645.472500",
        "113646.472500",
        "113647.472500",
        "113648.472500",
        "113649.472500",
        "113650.472500",
        "113651.472500",
        "113652.472500",
        "113653.472500",
        "113654.472500",
        "113655.472500",
        "113656.472500",
        "113657.472500",
        "113658.472500",
        "113659.472500",
        "113700.472500",
        "113701.472500",
        "113702.472500",
        "113703.472500",
        "113704.472500",
        "113705.472500",
        "113706.472500",
        "113707.472500",
        "113708.472500",
        "113709.472500",
        "113710.472500",
        "113711.472500",
        "113712.472500",
        "113713.472500",
        "113714.472500",
        "113715.472500",
        "113716.472500",
        "113717.472500",
        "113718.472500",
        "113719.472500",
        "113720.472500",
        "113721.472500",
        "113722.472500",
        "113723.472500",
        "113724.472500",
        "113725.472500",
        "113726.472500",
        "113727.472500",
        "113728.472500",
        "113729.472500",
        "113730.472500",
        "113731.472500",
        "113732.472500",
        "113733.472500",
        "113734.472500",
        "113735.472500",
        "113736.472500",
        "113737.472500",
        "113738.472500",
        "113739.472500",
        "113740.472500",
        "113741.472500",
        "113742.472500",
        "113743.472500",
        "113744.472500",
        "113745.472500",
        "113746.472500",
        "113747.472500",
        "113748.472500",
        "113749.472500",
        "113750.472500",
        "113751.472500",
        "113752.472500",
        "113753.472500",
        "113754.472500",
        "113755.472500",
        "113756.472500",
        "113757.472500",
        "113758.472500",
        "113759.472500",
        "113800.472500",
        "113801.472500",
        "113802.472500",
        "113803.472500",
        "113804.472500",
        "113805.472500",
        "113806.472500",
        "113807.472500",
        "113808.472500",
        "113809.472500",
        "113810.472500",
        "113811.472500",
        "113812.472500",
        "113813.472500",
        "113814.472500",
        "113815.472500",
        "113816.472500",
        "113817.472500",
        "113818.472500",
        "113819.472500",
        "113820.472500",
        "113821.472500",
        "113822.472500",
        "113823.472500",
        "113824.472500",
        "113825.472500",
        "113826.472500",
        "113827.472500",
        "113828.472500",
        "113829.472500",
        "113830.472500",
        "113831.472500",
        "113832.472500",
        "113833.472500",
        "113834.472500",
        "113835.472500",
        "113836.472500",
        "113837.472500",
        "113838.472500",
        "113839.472500",
        "113840.472500",
        "113841.472500",
        "113842.472500",
        "113843.472500",
        "113844.472500",
        "113845.472500",
        "113846.472500",
        "113847.472500",
        "113848.472500",
        "113849.472500",
        "113850.472500",
        "113851.472500",
        "113852.472500",
        "113853.472500",
        "113854.472500",
        "113855.472500",
        "113856.472500",
        "113857.472500",
        "113858.472500",
        "113859.472500",
        "113900.472500",
        "113901.472500",
        "113902.472500",
        "113903.472500",
        "113904.472500",
        "113905.472500",
        "113906.472500",
        "113907.472500",
        "113908.472500",
        "113909.472500",
        "113910.472500",
        "113911.472500",
        "113912.472500",
        "113913.472500",
        "113914.472500",
        "113915.472500",
        "113916.472500",
        "113917.472500",
        "113918.472500",
        "113919.472500",
        "113920.472500",
        "113921.472500",
        "113922.472500",
        "113923.472500",
        "113924.472500",
        "113925.472500",
        "113926.472500",
        "113927.472500",
        "113928.472500",
        "113929.472500",
        "113930.472500",
        "113931.472500",
        "113932.472500",
        "113933.472500"
      ],
      "ContentTime": [
        "113447.756000",
        "113448.610000",
        "113449.648000",
        "113450.603000",
        "113451.591000",
        "113452.592000",
        "113453.616000",
        "113454.570000",
        "113455.648000",
        "113456.594000",
        "113457.596000",
        "113458.608000",
        "113459.618000",
        "113500.589000",
        "113501.617000",
        "113502.610000",
        "113503.611000",
        "113504.587000",
        "113505.584000",
        "113506.578000",
        "113507.605000",
        "113508.594000",
        "113509.659000",
        "113510.608000",
        "113511.623000",
        "113512.631000",
        "113513.626000",
        "113514.554000",
        "113515.617000",
        "113516.604000",
        "113517.601000",
        "113518.614000",
        "113519.618000",
        "113520.586000",
        "113521.613000",
        "113522.611000",
        "113523.578000",
        "113524.590000",
        "113525.592000",
        "113526.610000",
        "113527.590000",
        "113528.611000",
        "113529.586000",
        "113530.633000",
        "113531.584000",
        "113532.596000",
        "113533.585000",
        "113534.581000",
        "113535.605000",
        "113536.599000",
        "113537.590000",
        "113538.594000",
        "113539.560000",
        "113540.615000",
        "113541.587000",
        "113542.574000",
        "113543.612000",
        "113544.593000",
        "113545.580000",
        "113546.582000",
        "113547.600000",
        "113548.584000",
        "113549.593000",
        "113550.608000",
        "113551.594000",
        "113552.632000",
        "113553.621000",
        "113554.638000",
        "113555.594000",
        "113556.594000",
        "113557.613000",
        "113558.605000",
        "113559.597000",
        "113600.599000",
        "113601.622000",
        "113602.611000",
        "113603.635000",
        "113604.602000",
        "113605.599000",
        "113606.602000",
        "113607.567000",
        "113608.596000",
        "113609.572000",
        "113610.606000",
        "113611.576000",
        "113612.590000",
        "113613.607000",
        "113614.593000",
        "113615.616000",
        "113616.627000",
        "113617.592000",
        "113618.633000",
        "113619.629000",
        "113620.578000",
        "113621.596000",
        "113622.611000",
        "113623.583000",
        "113624.625000",
        "113625.585000",
        "113626.618000",
        "113627.603000",
        "113628.616000",
        "113629.624000",
        "113630.594000",
        "113631.600000",
        "113632.600000",
        "113633.617000",
        "113634.582000",
        "113635.609000",
        "113636.612000",
        "113637.598000",
        "113638.603000",
        "113639.621000",
        "113640.642000",
        "113641.605000",
        "113642.597000",
        "113643.616000",
        "113644.611000",
        "113645.587000",
        "113646.642000",
        "113647.637000",
        "113648.595000",
        "113649.594000",
        "113650.605000",
        "113651.586000",
        "113652.613000",
        "113653.603000",
        "113654.584000",
        "113655.602000",
        "113656.604000",
        "113657.591000",
        "113658.607000",
        "113659.587000",
        "113700.588000",
        "113701.594000",
        "113702.606000",
        "113703.638000",
        "113704.654000",
        "113705.593000",
        "113706.589000",
        "113707.602000",
        "113708.590000",
        "113709.633000",
        "113710.631000",
        "113711.595000",
        "113712.612000",
        "113713.586000",
        "113714.631000",
        "113715.591000",
        "113716.619000",
        "113717.601000",
        "113718.608000",
        "113719.601000",
        "113720.593000",
        "113721.651000",
        "113722.623000",
        "113723.591000",
        "113724.605000",
        "113725.593000",
        "113726.599000",
        "113727.604000",
        "113728.602000",
        "113729.598000",
        "113730.614000",
        "113731.589000",
        "113732.594000",
        "113733.613000",
        "113734.606000",
        "113735.621000",
        "113736.666000",
        "113737.602000",
        "113738.592000",
        "113739.584000",
        "113740.593000",
        "113741.624000",
        "113742.600000",
        "113743.608000",
        "113744.599000",
        "113745.617000",
        "113746.589000",
        "113747.632000",
        "113748.600000",
        "113749.588000",
        "113750.607000",
        "113751.601000",
        "113752.602000",
        "113753.618000",
        "113754.600000",
        "113755.595000",
        "113756.640000",
        "113757.603000",
        "113758.612000",
        "113759.569000",
        "113800.608000",
        "113801.585000",
        "113802.575000",
        "113803.595000",
        "113804.621000",
        "113805.587000",
        "113806.606000",
        "113807.607000",
        "113808.609000",
        "113809.603000",
        "113810.618000",
        "113811.622000",
        "113812.608000",
        "113813.589000",
        "113814.628000",
        "113815.593000",
        "113816.622000",
        "113817.604000",
        "113818.600000",
        "113819.591000",
        "113820.606000",
        "113821.661000",
        "113822.634000",
        "113823.592000",
        "113824.586000",
        "113825.605000",
        "113826.628000",
        "113827.598000",
        "113828.600000",
        "113829.610000",
        "113830.598000",
        "113831.584000",
        "113832.608000",
        "113833.624000",
        "113834.568000",
        "113835.592000",
        "113836.609000",
        "113837.611000",
        "113838.612000",
        "113839.606000",
        "113840.624000",
        "113841.619000",
        "113842.653000",
        "113843.598000",
        "113844.591000",
        "113845.605000",
        "113846.600000",
        "113847.636000",
        "113848.611000",
        "113849.608000",
        "113850.600000",
        "113851.571000",
        "113852.583000",
        "113853.604000",
        "113854.581000",
        "113855.587000",
        "113856.615000",
        "113857.596000",
        "113858.592000",
        "113859.586000",
        "113900.603000",
        "113901.604000",
        "113902.647000",
        "113903.608000",
        "113904.594000",
        "113905.602000",
        "113906.619000",
        "113907.614000",
        "113908.603000",
        "113909.618000",
        "113910.626000",
        "113911.618000",
        "113912.585000",
        "113913.592000",
        "113914.606000",
        "113915.598000",
        "113916.599000",
        "113917.590000",
        "113918.593000",
        "113919.617000",
        "113920.607000",
        "113921.603000",
        "113922.591000",
        "113923.619000",
        "113924.600000",
        "113925.593000",
        "113926.604000",
        "113927.599000",
        "113928.591000",
        "113929.634000",
        "113930.593000",
        "113931.598000",
        "113932.588000",
        "113933.592000",
        "113934.636000"
      ],
      "InstanceCreationTime": [
        "113447.756000",
        "113448.610000",
        "113449.648000",
        "113450.603000",
        "113451.591000",
        "113452.592000",
        "113453.616000",
        "113454.570000",
        "113455.648000",
        "113456.594000",
        "113457.596000",
        "113458.608000",
        "113459.618000",
        "113500.589000",
        "113501.617000",
        "113502.610000",
        "113503.611000",
        "113504.587000",
        "113505.584000",
        "113506.578000",
        "113507.605000",
        "113508.594000",
        "113509.659000",
        "113510.608000",
        "113511.623000",
        "113512.631000",
        "113513.626000",
        "113514.554000",
        "113515.617000",
        "113516.604000",
        "113517.601000",
        "113518.614000",
        "113519.618000",
        "113520.586000",
        "113521.613000",
        "113522.611000",
        "113523.578000",
        "113524.590000",
        "113525.592000",
        "113526.610000",
        "113527.590000",
        "113528.611000",
        "113529.586000",
        "113530.633000",
        "113531.584000",
        "113532.596000",
        "113533.585000",
        "113534.581000",
        "113535.605000",
        "113536.599000",
        "113537.590000",
        "113538.594000",
        "113539.560000",
        "113540.615000",
        "113541.587000",
        "113542.574000",
        "113543.612000",
        "113544.593000",
        "113545.580000",
        "113546.582000",
        "113547.600000",
        "113548.584000",
        "113549.593000",
        "113550.608000",
        "113551.594000",
        "113552.632000",
        "113553.621000",
        "113554.638000",
        "113555.594000",
        "113556.594000",
        "113557.613000",
        "113558.605000",
        "113559.597000",
        "113600.599000",
        "113601.622000",
        "113602.611000",
        "113603.635000",
        "113604.602000",
        "113605.599000",
        "113606.602000",
        "113607.567000",
        "113608.596000",
        "113609.572000",
        "113610.606000",
        "113611.576000",
        "113612.590000",
        "113613.607000",
        "113614.593000",
        "113615.616000",
        "113616.627000",
        "113617.592000",
        "113618.633000",
        "113619.629000",
        "113620.578000",
        "113621.596000",
        "113622.611000",
        "113623.583000",
        "113624.625000",
        "113625.585000",
        "113626.618000",
        "113627.603000",
        "113628.616000",
        "113629.624000",
        "113630.594000",
        "113631.600000",
        "113632.600000",
        "113633.617000",
        "113634.582000",
        "113635.609000",
        "113636.612000",
        "113637.598000",
        "113638.603000",
        "113639.621000",
        "113640.642000",
        "113641.605000",
        "113642.597000",
        "113643.616000",
        "113644.611000",
        "113645.587000",
        "113646.642000",
        "113647.637000",
        "113648.595000",
        "113649.594000",
        "113650.605000",
        "113651.586000",
        "113652.613000",
        "113653.603000",
        "113654.584000",
        "113655.602000",
        "113656.604000",
        "113657.591000",
        "113658.607000",
        "113659.587000",
        "113700.588000",
        "113701.594000",
        "113702.606000",
        "113703.638000",
        "113704.654000",
        "113705.593000",
        "113706.589000",
        "113707.602000",
        "113708.590000",
        "113709.633000",
        "113710.631000",
        "113711.595000",
        "113712.612000",
        "113713.586000",
        "113714.631000",
        "113715.591000",
        "113716.619000",
        "113717.601000",
        "113718.608000",
        "113719.601000",
        "113720.593000",
        "113721.651000",
        "113722.623000",
        "113723.591000",
        "113724.605000",
        "113725.593000",
        "113726.599000",
        "113727.604000",
        "113728.602000",
        "113729.598000",
        "113730.614000",
        "113731.589000",
        "113732.594000",
        "113733.613000",
        "113734.606000",
        "113735.621000",
        "113736.666000",
        "113737.602000",
        "113738.592000",
        "113739.584000",
        "113740.593000",
        "113741.624000",
        "113742.600000",
        "113743.608000",
        "113744.599000",
        "113745.617000",
        "113746.589000",
        "113747.632000",
        "113748.600000",
        "113749.588000",
        "113750.607000",
        "113751.601000",
        "113752.602000",
        "113753.618000",
        "113754.600000",
        "113755.595000",
        "113756.640000",
        "113757.603000",
        "113758.612000",
        "113759.569000",
        "113800.608000",
        "113801.585000",
        "113802.575000",
        "113803.595000",
        "113804.621000",
        "113805.587000",
        "113806.606000",
        "113807.607000",
        "113808.609000",
        "113809.603000",
        "113810.618000",
        "113811.622000",
        "113812.608000",
        "113813.589000",
        "113814.628000",
        "113815.593000",
        "113816.622000",
        "113817.604000",
        "113818.600000",
        "113819.591000",
        "113820.606000",
        "113821.661000",
        "113822.634000",
        "113823.592000",
        "113824.586000",
        "113825.605000",
        "113826.628000",
        "113827.598000",
        "113828.600000",
        "113829.610000",
        "113830.598000",
        "113831.584000",
        "113832.608000",
        "113833.624000",
        "113834.568000",
        "113835.592000",
        "113836.609000",
        "113837.611000",
        "113838.612000",
        "113839.606000",
        "113840.624000",
        "113841.619000",
        "113842.653000",
        "113843.598000",
        "113844.591000",
        "113845.605000",
        "113846.600000",
        "113847.636000",
        "113848.611000",
        "113849.608000",
        "113850.600000",
        "113851.571000",
        "113852.583000",
        "113853.604000",
        "113854.581000",
        "113855.587000",
        "113856.615000",
        "113857.596000",
        "113858.592000",
        "113859.586000",
        "113900.603000",
        "113901.604000",
        "113902.647000",
        "113903.608000",
        "113904.594000",
        "113905.602000",
        "113906.619000",
        "113907.614000",
        "113908.603000",
        "113909.618000",
        "113910.626000",
        "113911.618000",
        "113912.585000",
        "113913.592000",
        "113914.606000",
        "113915.598000",
        "113916.599000",
        "113917.590000",
        "113918.593000",
        "113919.617000",
        "113920.607000",
        "113921.603000",
        "113922.591000",
        "113923.619000",
        "113924.600000",
        "113925.593000",
        "113926.604000",
        "113927.599000",
        "113928.591000",
        "113929.634000",
        "113930.593000",
        "113931.598000",
        "113932.588000",
        "113933.592000",
        "113934.636000"
      ],
      "InstanceNumber": [
        1,
        2,
        3,
        4,
        5,
        6,
        7,
        8,
        9,
        10,
        11,
        12,
        13,
        14,
        15,
        16,
        17,
        18,
        19,
        20,
        21,
        22,
        23,
        24,
        25,
        26,
        27,
        28,
        29,
        30,
        31,
        32,
        33,
        34,
        35,
        36,
        37,
        38,
        39,
        40,
        41,
        42,
        43,
        44,
        45,
        46,
        47,
        48,
        49,
        50,
        51,
        52,
        53,
        54,
        55,
        56,
        57,
        58,
        59,
        60,
        61,
        62,
        63,
        64,
        65,
        66,
        67,
        68,
        69,
        70,
        71,
        72,
        73,
        74,
        75,
        76,
        77,
        78,
        79,
        80,
        81,
        82,
        83,
        84,
        85,
        86,
        87,
        88,
        89,
        90,
        91,
        92,
        93,
        94,
        95,
        96,
        97,
        98,
        99,
        100,
        101,
        102,
        103,
        104,
        105,
        106,
        107,
        108,
        109,
        110,
        111,
        112,
        113,
        114,
        115,
        116,
        117,
        118,
        119,
        120,
        121,
        122,
        123,
        124,
        125,
        126,
        127,
        128,
        129,
        130,
        131,
        132,
        133,
        134,
        135,
        136,
        137,
        138,
        139,
        140,
        141,
        142,
        143,
        144,
        145,
        146,
        147,
        148,
        149,
        150,
        151,
        152,
        153,
        154,
        155,
