{
  "AcquisitionMatrixPE": 96,
  "AcquisitionNumber": 1,
  "BandwidthPerPixelPhaseEncode": 18.939,
  "BaseResolution": 96,
  "BodyPartExamined": "BRAIN",
  "ConsistencyInfo": "N4_VE11C_LATEST_20160120",
  "ConversionSoftware": "dcm2niix",
  "ConversionSoftwareVersion": "v1.0.20171215 (OpenJPEG build) GCC6.3.0",
  "DerivedVendorReportedEchoSpacing": 0.000550011,
  "DeviceSerialNumber": "66112",
  "DwellTime": 2.2e-06,
  "EchoTime": 0.033,
  "EchoTrainLength": 96,
  "EffectiveEchoSpacing": 0.000550011,
  "FlipAngle": 59,
  "ImageOrientationPatientDICOM": [
    0.999397,
    0.0345878,
    0.00305282,
    -0.0343758,
    0.997982,
    -0.0533818
  ],
  "ImageType": [
    "ORIGINAL",
    "PRIMARY",
    "FMRI",
    "NONE",
    "ND",
    "NORM",
    "MOSAIC"
  ],
  "InPlanePhaseEncodingDirectionDICOM": "COL",
  "InstitutionAddress": "Maynard_3_Hanover_NH_US_03755",
  "InstitutionName": "Dartmouth_College_-_PBS",
  "InstitutionalDepartmentName": "Department",
  "MRAcquisitionType": "2D",
  "MagneticFieldStrength": 3,
  "Manufacturer": "Siemens",
  "ManufacturersModelName": "Prisma",
  "Modality": "MR",
  "MultibandAccelerationFactor": 4,
  "PartialFourier": 1,
  "PatientPosition": "HFS",
  "PercentPhaseFOV": 100,
  "PhaseEncodingDirection": "j-",
  "PhaseEncodingSteps": 96,
  "PhaseResolution": 1,
  "PixelBandwidth": 2365,
  "ProcedureStepDescription": "Gobbini_Matteo_1038_hyperface",
  "ProtocolName": "func_run-08_task-visualmemory",
  "PulseSequenceDetails": "%SiemensSeq%_ep2d_bold",
  "ReceiveCoilActiveElements": "HEA;HEP",
  "ReceiveCoilName": "Head_32",
  "ReconMatrixPE": 96,
  "RepetitionTime": 1,
  "SAR": 0.0525261,
  "ScanOptions": "FS",
  "ScanningSequence": "EP",
  "SequenceName": "_epfid2d1_96",
  "SequenceVariant": "SK",
  "SeriesDescription": "func_run-08_task-visualmemory",
  "SeriesNumber": 56,
  "ShimSetting": [
    4157,
    -7725,
    -7282,
    707,
    -37,
    -75,
    38,
    108
  ],
  "SliceThickness": 2.5,
  "SliceTiming": [
    0.735,
    0,
    0.49,
    0.0825,
    0.5725,
    0.165,
    0.655,
    0.3275,
    0.8175,
    0.41,
    0.9,
    0.245,
    0.735,
    0,
    0.49,
    0.0825,
    0.5725,
    0.165,
    0.655,
    0.3275,
    0.8175,
    0.41,
    0.9,
    0.245,
    0.735,
    0,
    0.49,
    0.0825,
    0.5725,
    0.165,
    0.655,
    0.3275,
    0.8175,
    0.41,
    0.9,
    0.245,
    0.735,
    0,
    0.49,
    0.0825,
    0.5725,
    0.165,
    0.655,
    0.3275,
    0.8175,
    0.41,
    0.9,
    0.245
  ],
  "SoftwareVersions": "syngo_MR_E11",
  "SpacingBetweenSlices": 2.5,
  "StationName": "AWP66112",
  "TotalReadoutTime": 0.0522511,
  "TxRefAmp": 235.631,
  "time": {
    "samples": {
      "AcquisitionNumber": [
        1,
        2,
        3,
        4,
        5,
        6,
        7,
        8,
        9,
        10,
        11,
        12,
        13,
        14,
        15,
        16,
        17,
        18,
        19,
        20,
        21,
        22,
        23,
        24,
        25,
        26,
        27,
        28,
        29,
        30,
        31,
        32,
        33,
        34,
        35,
        36,
        37,
        38,
        39,
        40,
        41,
        42,
        43,
        44,
        45,
        46,
        47,
        48,
        49,
        50,
        51,
        52,
        53,
        54,
        55,
        56,
        57,
        58,
        59,
        60,
        61,
        62,
        63,
        64,
        65,
        66,
        67,
        68,
        69,
        70,
        71,
        72,
        73,
        74,
        75,
        76,
        77,
        78,
        79,
        80,
        81,
        82,
        83,
        84,
        85,
        86,
        87,
        88,
        89,
        90,
        91,
        92,
        93,
        94,
        95,
        96,
        97,
        98,
        99,
        100,
        101,
        102,
        103,
        104,
        105,
        106,
        107,
        108,
        109,
        110,
        111,
        112,
        113,
        114,
        115,
        116,
        117,
        118,
        119,
        120,
        121,
        122,
        123,
        124,
        125,
        126,
        127,
        128,
        129,
        130,
        131,
        132,
        133,
        134,
        135,
        136,
        137,
        138,
        139,
        140,
        141,
        142,
        143,
        144,
        145,
        146,
        147,
        148,
        149,
        150,
        151,
        152,
        153,
        154,
        155,
        156,
        157,
        158,
        159,
        160,
        161,
        162,
        163,
        164,
        165,
        166,
        167,
        168,
        169,
        170,
        171,
        172,
        173,
        174,
        175,
        176,
        177,
        178,
        179,
        180,
        181,
        182,
        183,
        184,
        185,
        186,
        187,
        188,
        189,
        190,
        191,
        192,
        193,
        194,
        195,
        196,
        197,
        198,
        199,
        200,
        201,
        202,
        203,
        204,
        205,
        206,
        207,
        208,
        209,
        210,
        211,
        212,
        213,
        214,
        215,
        216,
        217,
        218,
        219,
        220,
        221,
        222,
        223,
        224,
        225,
        226,
        227,
        228,
        229,
        230,
        231,
        232,
        233,
        234,
        235,
        236,
        237,
        238,
        239,
        240,
        241,
        242,
        243,
        244,
        245,
        246,
        247,
        248,
        249,
        250,
        251,
        252,
        253,
        254,
        255,
        256,
        257,
        258,
        259,
        260,
        261,
        262,
        263,
        264,
        265,
        266,
        267,
        268,
        269,
        270,
        271,
        272,
        273,
        274,
        275,
        276,
        277,
        278,
        279,
        280,
        281,
        282,
        283,
        284,
        285,
        286,
        287,
        288
      ],
      "AcquisitionTime": [
        "114524.745000",
        "114525.745000",
        "114526.745000",
        "114527.745000",
        "114528.745000",
        "114529.745000",
        "114530.745000",
        "114531.745000",
        "114532.745000",
        "114533.745000",
        "114534.745000",
        "114535.745000",
        "114536.745000",
        "114537.745000",
        "114538.745000",
        "114539.745000",
        "114540.745000",
        "114541.745000",
        "114542.745000",
        "114543.745000",
        "114544.745000",
        "114545.745000",
        "114546.745000",
        "114547.745000",
        "114548.745000",
        "114549.745000",
        "114550.745000",
        "114551.745000",
        "114552.745000",
        "114553.745000",
        "114554.745000",
        "114555.745000",
        "114556.745000",
        "114557.745000",
        "114558.745000",
        "114559.745000",
        "114600.745000",
        "114601.745000",
        "114602.745000",
        "114603.745000",
        "114604.745000",
        "114605.745000",
        "114606.745000",
        "114607.745000",
        "114608.745000",
        "114609.745000",
        "114610.745000",
        "114611.745000",
        "114612.745000",
        "114613.745000",
        "114614.745000",
        "114615.745000",
        "114616.745000",
        "114617.745000",
        "114618.745000",
        "114619.745000",
        "114620.745000",
        "114621.745000",
        "114622.745000",
        "114623.745000",
        "114624.745000",
        "114625.745000",
        "114626.745000",
        "114627.745000",
        "114628.745000",
        "114629.745000",
        "114630.745000",
        "114631.745000",
        "114632.745000",
        "114633.745000",
        "114634.745000",
        "114635.745000",
        "114636.745000",
        "114637.745000",
        "114638.745000",
        "114639.745000",
        "114640.745000",
        "114641.745000",
        "114642.745000",
        "114643.745000",
        "114644.745000",
        "114645.745000",
        "114646.745000",
        "114647.745000",
        "114648.745000",
        "114649.745000",
        "114650.745000",
        "114651.745000",
        "114652.745000",
        "114653.745000",
        "114654.745000",
        "114655.745000",
        "114656.745000",
        "114657.745000",
        "114658.745000",
        "114659.745000",
        "114700.745000",
        "114701.745000",
        "114702.745000",
        "114703.745000",
        "114704.745000",
        "114705.745000",
        "114706.745000",
        "114707.745000",
        "114708.745000",
        "114709.745000",
        "114710.745000",
        "114711.745000",
        "114712.745000",
        "114713.745000",
        "114714.745000",
        "114715.745000",
        "114716.745000",
        "114717.745000",
        "114718.745000",
        "114719.745000",
        "114720.745000",
        "114721.745000",
        "114722.745000",
        "114723.745000",
        "114724.745000",
        "114725.745000",
        "114726.745000",
        "114727.745000",
        "114728.745000",
        "114729.745000",
        "114730.745000",
        "114731.745000",
        "114732.745000",
        "114733.745000",
        "114734.745000",
        "114735.745000",
        "114736.745000",
        "114737.745000",
        "114738.745000",
        "114739.745000",
        "114740.745000",
        "114741.745000",
        "114742.745000",
        "114743.745000",
        "114744.745000",
        "114745.745000",
        "114746.745000",
        "114747.745000",
        "114748.745000",
        "114749.745000",
        "114750.745000",
        "114751.745000",
        "114752.745000",
        "114753.745000",
        "114754.745000",
        "114755.745000",
        "114756.745000",
        "114757.745000",
        "114758.745000",
        "114759.745000",
        "114800.745000",
        "114801.745000",
        "114802.745000",
        "114803.745000",
        "114804.745000",
        "114805.745000",
        "114806.745000",
        "114807.745000",
        "114808.745000",
        "114809.745000",
        "114810.745000",
        "114811.745000",
        "114812.745000",
        "114813.745000",
        "114814.745000",
        "114815.745000",
        "114816.745000",
        "114817.745000",
        "114818.745000",
        "114819.745000",
        "114820.745000",
        "114821.745000",
        "114822.745000",
        "114823.745000",
        "114824.745000",
        "114825.745000",
        "114826.745000",
        "114827.745000",
        "114828.745000",
        "114829.745000",
        "114830.745000",
        "114831.745000",
        "114832.745000",
        "114833.745000",
        "114834.745000",
        "114835.745000",
        "114836.745000",
        "114837.745000",
        "114838.745000",
        "114839.745000",
        "114840.745000",
        "114841.745000",
        "114842.745000",
        "114843.745000",
        "114844.745000",
        "114845.745000",
        "114846.745000",
        "114847.745000",
        "114848.745000",
        "114849.745000",
        "114850.745000",
        "114851.745000",
        "114852.745000",
        "114853.745000",
        "114854.745000",
        "114855.745000",
        "114856.745000",
        "114857.745000",
        "114858.745000",
        "114859.745000",
        "114900.745000",
        "114901.745000",
        "114902.745000",
        "114903.745000",
        "114904.745000",
        "114905.745000",
        "114906.745000",
        "114907.745000",
        "114908.745000",
        "114909.745000",
        "114910.745000",
        "114911.745000",
        "114912.745000",
        "114913.745000",
        "114914.745000",
        "114915.745000",
        "114916.745000",
        "114917.745000",
        "114918.745000",
        "114919.745000",
        "114920.745000",
        "114921.745000",
        "114922.745000",
        "114923.745000",
        "114924.745000",
        "114925.745000",
        "114926.745000",
        "114927.745000",
        "114928.745000",
        "114929.745000",
        "114930.745000",
        "114931.745000",
        "114932.745000",
        "114933.745000",
        "114934.745000",
        "114935.745000",
        "114936.745000",
        "114937.745000",
        "114938.745000",
        "114939.745000",
        "114940.745000",
        "114941.745000",
        "114942.745000",
        "114943.745000",
        "114944.745000",
        "114945.745000",
        "114946.745000",
        "114947.745000",
        "114948.745000",
        "114949.745000",
        "114950.745000",
        "114951.745000",
        "114952.745000",
        "114953.745000",
        "114954.745000",
        "114955.745000",
        "114956.745000",
        "114957.745000",
        "114958.745000",
        "114959.745000",
        "115000.745000",
        "115001.745000",
        "115002.745000",
        "115003.745000",
        "115004.745000",
        "115005.745000",
        "115006.745000",
        "115007.745000",
        "115008.745000",
        "115009.745000",
        "115010.745000",
        "115011.745000"
      ],
      "ContentTime": [
        "114526.101000",
        "114526.990000",
        "114528.003000",
        "114528.980000",
        "114529.979000",
        "114530.956000",
        "114531.971000",
        "114532.961000",
        "114533.953000",
        "114534.968000",
        "114535.962000",
        "114536.974000",
        "114538.034000",
        "114538.973000",
        "114539.966000",
        "114541.016000",
        "114541.967000",
        "114542.978000",
        "114543.943000",
        "114544.982000",
        "114546.023000",
        "114546.968000",
        "114547.966000",
        "114548.954000",
        "114549.966000",
        "114551.003000",
        "114551.970000",
        "114552.971000",
        "114553.964000",
        "114554.965000",
        "114555.996000",
        "114556.992000",
        "114558.007000",
        "114558.954000",
        "114559.963000",
        "114600.952000",
        "114601.981000",
        "114602.970000",
        "114603.954000",
        "114604.955000",
        "114605.954000",
        "114606.943000",
        "114607.950000",
        "114608.944000",
        "114610.048000",
        "114610.961000",
        "114611.952000",
        "114613.004000",
        "114613.967000",
        "114615.009000",
        "114615.973000",
        "114617.003000",
        "114617.981000",
        "114618.965000",
        "114619.976000",
        "114620.962000",
        "114621.961000",
        "114622.964000",
        "114623.962000",
        "114624.972000",
        "114626.025000",
        "114626.973000",
        "114627.955000",
        "114628.964000",
        "114629.980000",
        "114630.958000",
        "114631.958000",
        "114632.994000",
        "114633.996000",
        "114634.959000",
        "114635.946000",
        "114636.950000",
        "114637.950000",
        "114638.959000",
        "114639.980000",
        "114641.036000",
        "114641.966000",
        "114642.963000",
        "114643.980000",
        "114644.958000",
        "114645.961000",
        "114646.965000",
        "114647.975000",
        "114648.963000",
        "114649.957000",
        "114650.949000",
        "114651.961000",
        "114652.955000",
        "114653.942000",
        "114654.946000",
        "114655.968000",
        "114656.968000",
        "114657.956000",
        "114658.946000",
        "114659.947000",
        "114700.974000",
        "114701.966000",
        "114702.949000",
        "114703.941000",
        "114705.035000",
        "114705.989000",
        "114706.952000",
        "114707.985000",
        "114708.975000",
        "114709.974000",
        "114711.013000",
        "114711.956000",
        "114713.000000",
        "114714.011000",
        "114714.984000",
        "114715.971000",
        "114716.958000",
        "114717.986000",
        "114718.963000",
        "114719.976000",
        "114720.975000",
        "114721.970000",
        "114722.991000",
        "114724.000000",
        "114724.978000",
        "114725.971000",
        "114726.976000",
        "114727.959000",
        "114728.950000",
        "114729.977000",
        "114730.960000",
        "114731.977000",
        "114733.031000",
        "114733.961000",
        "114735.000000",
        "114735.956000",
        "114736.954000",
        "114737.978000",
        "114738.954000",
        "114739.955000",
        "114740.987000",
        "114741.962000",
        "114742.969000",
        "114743.953000",
        "114744.954000",
        "114745.966000",
        "114747.001000",
        "114747.969000",
        "114748.977000",
        "114750.051000",
        "114750.968000",
        "114751.940000",
        "114753.004000",
        "114754.000000",
        "114754.993000",
        "114755.973000",
        "114756.967000",
        "114757.983000",
        "114758.966000",
        "114800.014000",
        "114800.980000",
        "114802.018000",
        "114802.962000",
        "114803.953000",
        "114804.971000",
        "114805.965000",
        "114806.959000",
        "114807.954000",
        "114808.989000",
        "114809.946000",
        "114810.968000",
        "114811.953000",
        "114812.964000",
        "114813.959000",
        "114814.960000",
        "114815.954000",
        "114816.968000",
        "114817.958000",
        "114818.959000",
        "114819.965000",
        "114820.957000",
        "114821.960000",
        "114822.950000",
        "114823.964000",
        "114824.953000",
        "114825.973000",
        "114826.954000",
        "114827.988000",
        "114828.963000",
        "114829.975000",
        "114830.988000",
        "114831.969000",
        "114832.966000",
        "114833.968000",
        "114834.974000",
        "114835.963000",
        "114836.961000",
        "114837.959000",
        "114838.989000",
        "114839.958000",
        "114840.974000",
        "114841.966000",
        "114842.967000",
        "114844.003000",
        "114844.954000",
        "114845.962000",
        "114846.980000",
        "114847.977000",
        "114849.019000",
        "114850.008000",
        "114850.958000",
        "114851.945000",
        "114852.952000",
        "114854.025000",
        "114854.974000",
        "114855.948000",
        "114856.963000",
        "114857.944000",
        "114858.981000",
        "114859.944000",
        "114900.930000",
        "114901.927000",
        "114902.957000",
        "114903.968000",
        "114904.955000",
        "114905.959000",
        "114907.036000",
        "114907.947000",
        "114908.982000",
        "114910.012000",
        "114910.989000",
        "114911.973000",
        "114912.951000",
        "114913.958000",
        "114914.946000",
        "114915.989000",
        "114916.970000",
        "114917.956000",
        "114918.988000",
        "114920.013000",
        "114920.978000",
        "114921.953000",
        "114922.978000",
        "114923.955000",
        "114924.966000",
        "114925.980000",
        "114926.983000",
        "114927.980000",
        "114928.968000",
        "114929.965000",
        "114930.981000",
        "114931.978000",
        "114933.004000",
        "114933.965000",
        "114934.969000",
        "114935.954000",
        "114936.986000",
        "114937.929000",
        "114938.989000",
        "114939.945000",
        "114940.943000",
        "114941.986000",
        "114942.963000",
        "114943.969000",
        "114945.009000",
        "114945.964000",
        "114946.966000",
        "114948.016000",
        "114948.972000",
        "114949.960000",
        "114950.970000",
        "114951.968000",
        "114952.997000",
        "114953.962000",
        "114954.949000",
        "114955.970000",
        "114956.978000",
        "114957.959000",
        "114958.958000",
        "114959.997000",
        "115001.032000",
        "115001.958000",
        "115002.963000",
        "115003.977000",
        "115005.001000",
        "115006.003000",
        "115006.998000",
        "115007.995000",
        "115008.969000",
        "115009.969000",
        "115010.970000",
        "115011.966000",
        "115012.970000"
      ],
      "InstanceCreationTime": [
        "114526.101000",
        "114526.990000",
        "114528.003000",
        "114528.980000",
        "114529.979000",
        "114530.956000",
        "114531.971000",
        "114532.961000",
        "114533.953000",
        "114534.968000",
        "114535.962000",
        "114536.974000",
        "114538.034000",
        "114538.973000",
        "114539.966000",
        "114541.016000",
        "114541.967000",
        "114542.978000",
        "114543.943000",
        "114544.982000",
        "114546.023000",
        "114546.968000",
        "114547.966000",
        "114548.954000",
        "114549.966000",
        "114551.003000",
        "114551.970000",
        "114552.971000",
        "114553.964000",
        "114554.965000",
        "114555.996000",
        "114556.992000",
        "114558.007000",
        "114558.954000",
        "114559.963000",
        "114600.952000",
        "114601.981000",
        "114602.970000",
        "114603.954000",
        "114604.955000",
        "114605.954000",
        "114606.943000",
        "114607.950000",
        "114608.944000",
        "114610.048000",
        "114610.961000",
        "114611.952000",
        "114613.004000",
        "114613.967000",
        "114615.009000",
        "114615.973000",
        "114617.003000",
        "114617.981000",
        "114618.965000",
        "114619.976000",
        "114620.962000",
        "114621.961000",
        "114622.964000",
        "114623.962000",
        "114624.972000",
        "114626.025000",
        "114626.973000",
        "114627.955000",
        "114628.964000",
        "114629.980000",
        "114630.958000",
        "114631.958000",
        "114632.994000",
        "114633.996000",
        "114634.959000",
        "114635.946000",
        "114636.950000",
        "114637.950000",
        "114638.959000",
        "114639.980000",
        "114641.036000",
        "114641.966000",
        "114642.963000",
        "114643.980000",
        "114644.958000",
        "114645.961000",
        "114646.965000",
        "114647.975000",
        "114648.963000",
        "114649.957000",
        "114650.949000",
        "114651.961000",
        "114652.955000",
        "114653.942000",
        "114654.946000",
        "114655.968000",
        "114656.968000",
        "114657.956000",
        "114658.946000",
        "114659.947000",
        "114700.974000",
        "114701.966000",
        "114702.949000",
        "114703.941000",
        "114705.035000",
        "114705.989000",
        "114706.952000",
        "114707.985000",
        "114708.975000",
        "114709.974000",
        "114711.013000",
        "114711.956000",
        "114713.000000",
        "114714.011000",
        "114714.984000",
        "114715.971000",
        "114716.958000",
        "114717.986000",
        "114718.963000",
        "114719.976000",
        "114720.975000",
        "114721.970000",
        "114722.991000",
        "114724.000000",
        "114724.978000",
        "114725.971000",
        "114726.976000",
        "114727.959000",
        "114728.950000",
        "114729.977000",
        "114730.960000",
        "114731.977000",
        "114733.031000",
        "114733.961000",
        "114735.000000",
        "114735.956000",
        "114736.954000",
        "114737.978000",
        "114738.954000",
        "114739.955000",
        "114740.987000",
        "114741.962000",
        "114742.969000",
        "114743.953000",
        "114744.954000",
        "114745.966000",
        "114747.001000",
        "114747.969000",
        "114748.977000",
        "114750.051000",
        "114750.968000",
        "114751.940000",
        "114753.004000",
        "114754.000000",
        "114754.993000",
        "114755.973000",
        "114756.967000",
        "114757.983000",
        "114758.966000",
        "114800.014000",
        "114800.980000",
        "114802.018000",
        "114802.962000",
        "114803.953000",
        "114804.971000",
        "114805.965000",
        "114806.959000",
        "114807.954000",
        "114808.989000",
        "114809.946000",
        "114810.968000",
        "114811.953000",
        "114812.964000",
        "114813.959000",
        "114814.960000",
        "114815.954000",
        "114816.968000",
        "114817.958000",
        "114818.959000",
        "114819.965000",
        "114820.957000",
        "114821.960000",
        "114822.950000",
        "114823.964000",
        "114824.953000",
        "114825.973000",
        "114826.954000",
        "114827.988000",
        "114828.963000",
        "114829.975000",
        "114830.988000",
        "114831.969000",
        "114832.966000",
        "114833.968000",
        "114834.974000",
        "114835.963000",
        "114836.961000",
        "114837.959000",
        "114838.989000",
        "114839.958000",
        "114840.974000",
        "114841.966000",
        "114842.967000",
        "114844.003000",
        "114844.954000",
        "114845.962000",
        "114846.980000",
        "114847.977000",
        "114849.019000",
        "114850.008000",
        "114850.958000",
        "114851.945000",
        "114852.952000",
        "114854.025000",
        "114854.974000",
        "114855.948000",
        "114856.963000",
        "114857.944000",
        "114858.981000",
        "114859.944000",
        "114900.930000",
        "114901.927000",
        "114902.957000",
        "114903.968000",
        "114904.955000",
        "114905.959000",
        "114907.036000",
        "114907.947000",
        "114908.982000",
        "114910.012000",
        "114910.989000",
        "114911.973000",
        "114912.951000",
        "114913.958000",
        "114914.946000",
        "114915.989000",
        "114916.970000",
        "114917.956000",
        "114918.988000",
        "114920.013000",
        "114920.978000",
        "114921.953000",
        "114922.978000",
        "114923.955000",
        "114924.966000",
        "114925.980000",
        "114926.983000",
        "114927.980000",
        "114928.968000",
        "114929.965000",
        "114930.981000",
        "114931.978000",
        "114933.004000",
        "114933.965000",
        "114934.969000",
        "114935.954000",
        "114936.986000",
        "114937.929000",
        "114938.989000",
        "114939.945000",
        "114940.943000",
        "114941.986000",
        "114942.963000",
        "114943.969000",
        "114945.009000",
        "114945.964000",
        "114946.966000",
        "114948.016000",
        "114948.972000",
        "114949.960000",
        "114950.970000",
        "114951.968000",
        "114952.997000",
        "114953.962000",
        "114954.949000",
        "114955.970000",
        "114956.978000",
        "114957.959000",
        "114958.958000",
        "114959.997000",
        "115001.032000",
        "115001.958000",
        "115002.963000",
        "115003.977000",
        "115005.001000",
        "115006.003000",
        "115006.998000",
        "115007.995000",
        "115008.969000",
        "115009.969000",
        "115010.970000",
        "115011.966000",
        "115012.970000"
      ],
      "InstanceNumber": [
        1,
        2,
        3,
        4,
        5,
        6,
        7,
        8,
        9,
        10,
        11,
        12,
        13,
        14,
        15,
        16,
        17,
        18,
        19,
        20,
        21,
        22,
        23,
        24,
        25,
        26,
        27,
        28,
        29,
        30,
        31,
        32,
        33,
        34,
        35,
        36,
        37,
        38,
        39,
        40,
        41,
        42,
        43,
        44,
        45,
        46,
        47,
        48,
        49,
        50,
        51,
        52,
        53,
        54,
        55,
        56,
        57,
        58,
        59,
        60,
        61,
        62,
        63,
        64,
        65,
        66,
        67,
        68,
        69,
        70,
        71,
        72,
        73,
        74,
        75,
        76,
        77,
        78,
        79,
        80,
        81,
        82,
        83,
        84,
        85,
        86,
        87,
        88,
        89,
        90,
        91,
        92,
        93,
        94,
        95,
        96,
        97,
        98,
        99,
        100,
        101,
        102,
        103,
        104,
        105,
        106,
        107,
        108,
        109,
        110,
        111,
        112,
        113,
        114,
        115,
        116,
        117,
        118,
        119,
        120,
        121,
        122,
        123,
        124,
        125,
        126,
        127,
        128,
        129,
        130,
        131,
        132,
        133,
        134,
        135,
        136,
        137,
        138,
        139,
        140,
        141,
        142,
        143,
        144,
        145,
        146,
        147,
        148,
        149,
        150,
        151,
        152,
        153,
        154,
        155,
