{
  "AcquisitionMatrixPE": 96,
  "AcquisitionNumber": 1,
  "AcquisitionTime": "16:12:2.187500",
  "BandwidthPerPixelPhaseEncode": 18.939,
  "BaseResolution": 96,
  "BodyPartExamined": "BRAIN",
  "ConsistencyInfo": "N4_VE11C_LATEST_20160120",
  "ConversionSoftware": "dcm2niix",
  "ConversionSoftwareVersion": "v1.0.20170923 (OpenJPEG build) GCC6.3.0",
  "DerivedVendorReportedEchoSpacing": 0.000550011,
  "DeviceSerialNumber": "66112",
  "DwellTime": 2.2e-06,
  "EchoTime": 0.033,
  "EchoTrainLength": 96,
  "EffectiveEchoSpacing": 0.000550011,
  "FlipAngle": 59,
  "ImageType": [
    "ORIGINAL",
    "PRIMARY",
    "FMRI",
    "NONE",
    "ND",
    "NORM",
    "MOSAIC"
  ],
  "InstitutionAddress": "Maynard_3_Hanover_NH_US_03755",
  "InstitutionName": "Dartmouth_College_-_PBS",
  "MagneticFieldStrength": 3,
  "Manufacturer": "Siemens",
  "ManufacturersModelName": "Prisma",
  "Modality": "MR",
  "MultibandAccelerationFactor": 4,
  "PercentPhaseFOV": 100,
  "PhaseEncodingDirection": "j-",
  "PhaseEncodingSteps": 96,
  "PhaseResolution": 1,
  "ProcedureStepDescription": "Gobbini_Matteo_1038_hyperface",
  "ProtocolName": "func_run-01_task-localizer",
  "PulseSequenceDetails": "%SiemensSeq%_ep2d_bold",
  "ReceiveCoilActiveElements": "HEA;HEP",
  "ReceiveCoilName": "Head_32",
  "ReconMatrixPE": 96,
  "RepetitionTime": 1,
  "ScanOptions": "FS",
  "ScanningSequence": "EP",
  "SequenceName": "_epfid2d1_96",
  "SequenceVariant": "SK",
  "SeriesDescription": "func_run-01_task-localizer",
  "SliceTiming": [
    0.735,
    0,
    0.49,
    0.08,
    0.57,
    0.1625,
    0.6525,
    0.325,
    0.815,
    0.4075,
    0.8975,
    0.245,
    0.735,
    0,
    0.49,
    0.08,
    0.57,
    0.1625,
    0.6525,
    0.325,
    0.815,
    0.4075,
    0.8975,
    0.245,
    0.735,
    0,
    0.49,
    0.08,
    0.57,
    0.1625,
    0.6525,
    0.325,
    0.815,
    0.4075,
    0.8975,
    0.245,
    0.735,
    0,
    0.49,
    0.08,
    0.57,
    0.1625,
    0.6525,
    0.325,
    0.815,
    0.4075,
    0.8975,
    0.245
  ],
  "SoftwareVersions": "syngo_MR_E11",
  "StationName": "AWP66112",
  "TotalReadoutTime": 0.0522511,
  "dcmmeta_affine": [
    [
      -2.4993627071380615,
      -0.05235407128930092,
      -0.02111014910042286,
      128.6347198486328
    ],
    [
      -0.05297505483031273,
      2.498276472091675,
      0.07621613144874573,
      -106.36206817626953
    ],
    [
      -0.019499504938721657,
      -0.07664402574300766,
      2.498748779296875,
      -71.9359130859375
    ],
    [
      0.0,
      0.0,
      0.0,
      1.0
    ]
  ],
  "dcmmeta_reorient_transform": [
    [
      0.0,
      -1.0,
      0.0,
      95.0
    ],
    [
      1.0,
      0.0,
      0.0,
      0.0
    ],
    [
      0.0,
      0.0,
      1.0,
      0.0
    ],
    [
      0.0,
      0.0,
      0.0,
      1.0
    ]
  ],
  "dcmmeta_shape": [
    96,
    96,
    48,
    236
  ],
  "dcmmeta_slice_dim": 2,
  "dcmmeta_version": 0.6,
  "global": {
    "const": {
      "AccessionNumber": "A001160",
      "AcquisitionMatrix": [
        96,
        0,
        0,
        96
      ],
      "AngioFlag": "N",
      "BitsAllocated": 16,
      "BitsStored": 12,
      "BodyPartExamined": "BRAIN",
      "Columns": 672,
      "EchoNumbers": 1,
      "EchoTime": 33.0,
      "EchoTrainLength": 96,
      "FlipAngle": 59.0,
      "HighBit": 11,
      "ImageOrientationPatient": [
        0.99974504053256,
        0.02119002178883,
        -0.0077998017372,
        -0.0209416281383,
        0.99931054188531,
        0.03065761060169
      ],
      "ImagePositionPatient": [
        -828.39954590032,
        -865.73458786616,
        -95.674718686893
      ],
      "ImageType": [
        "ORIGINAL",
        "PRIMARY",
        "FMRI",
        "NONE",
        "ND",
        "NORM",
        "MOSAIC"
      ],
      "ImagedNucleus": "1H",
      "ImagingFrequency": 123.252558,
      "InPlanePhaseEncodingDirection": "COL",
      "MRAcquisitionType": "2D",
      "MagneticFieldStrength": 3.0,
      "Manufacturer": "SIEMENS",
      "ManufacturerModelName": "Prisma",
      "Modality": "MR",
      "NumberOfAverages": 1.0,
      "NumberOfPhaseEncodingSteps": 96,
      "PercentPhaseFieldOfView": 100.0,
      "PercentSampling": 100.0,
      "PerformedProcedureStepStartTime": "160115.265000",
      "PhotometricInterpretation": "MONOCHROME2",
      "PixelBandwidth": 2365.0,
      "PixelRepresentation": 0,
      "PixelSpacing": [
        2.5,
        2.5
      ],
      "PositionReferenceIndicator": "",
      "ProtocolName": "func_run-01_task-localizer",
      "RepetitionTime": 1000.0,
      "Rows": 672,
      "SAR": 0.0650180247524,
      "SamplesPerPixel": 1,
      "ScanOptions": "FS",
      "ScanningSequence": "EP",
      "SequenceName": "*epfid2d1_96",
      "SequenceVariant": "SK",
      "SeriesDescription": "func_run-01_task-localizer",
      "SeriesNumber": 7,
      "SeriesTime": "161203.771000",
      "SliceLocation": -76.228712353204,
      "SliceThickness": 2.5,
      "SmallestImagePixelValue": 0,
      "SoftwareVersions": "syngo MR E11",
      "SpacingBetweenSlices": 2.4999999997675,
      "SpecificCharacterSet": "ISO_IR 100",
      "StudyID": "3",
      "StudyTime": "160115.224000",
      "TransmitCoilName": "Body",
      "VariableFlipAngleFlag": "N",
      "WindowCenterWidthExplanation": "Algo1",
      "dBdt": 0.0
    },
    "slices": {}
  },
  "time": {
    "samples": {
      "AcquisitionNumber": [
        1,
        2,
        3,
        4,
        5,
        6,
        7,
        8,
        9,
        10,
        11,
        12,
        13,
        14,
        15,
        16,
        17,
        18,
        19,
        20,
        21,
        22,
        23,
        24,
        25,
        26,
        27,
        28,
        29,
        30,
        31,
        32,
        33,
        34,
        35,
        36,
        37,
        38,
        39,
        40,
        41,
        42,
        43,
        44,
        45,
        46,
        47,
        48,
        49,
        50,
        51,
        52,
        53,
        54,
        55,
        56,
        57,
        58,
        59,
        60,
        61,
        62,
        63,
        64,
        65,
        66,
        67,
        68,
        69,
        70,
        71,
        72,
        73,
        74,
        75,
        76,
        77,
        78,
        79,
        80,
        81,
        82,
        83,
        84,
        85,
        86,
        87,
        88,
        89,
        90,
        91,
        92,
        93,
        94,
        95,
        96,
        97,
        98,
        99,
        100,
        101,
        102,
        103,
        104,
        105,
        106,
        107,
        108,
        109,
        110,
        111,
        112,
        113,
        114,
        115,
        116,
        117,
        118,
        119,
        120,
        121,
        122,
        123,
        124,
        125,
        126,
        127,
        128,
        129,
        130,
        131,
        132,
        133,
        134,
        135,
        136,
        137,
        138,
        139,
        140,
        141,
        142,
        143,
        144,
        145,
        146,
        147,
        148,
        149,
        150,
        151,
        152,
        153,
        154,
        155,
        156,
        157,
        158,
        159,
        160,
        161,
        162,
        163,
        164,
        165,
        166,
        167,
        168,
        169,
        170,
        171,
        172,
        173,
        174,
        175,
        176,
        177,
        178,
        179,
        180,
        181,
        182,
        183,
        184,
        185,
        186,
        187,
        188,
        189,
        190,
        191,
        192,
        193,
        194,
        195,
        196,
        197,
        198,
        199,
        200,
        201,
        202,
        203,
        204,
        205,
        206,
        207,
        208,
        209,
        210,
        211,
        212,
        213,
        214,
        215,
        216,
        217,
        218,
        219,
        220,
        221,
        222,
        223,
        224,
        225,
        226,
        227,
        228,
        229,
        230,
        231,
        232,
        233,
        234,
        235,
        236
      ],
      "AcquisitionTime": [
        "161202.187500",
        "161203.187500",
        "161204.187500",
        "161205.187500",
        "161206.187500",
        "161207.187500",
        "161208.187500",
        "161209.187500",
        "161210.187500",
        "161211.187500",
        "161212.187500",
        "161213.187500",
        "161214.187500",
        "161215.187500",
        "161216.187500",
        "161217.187500",
        "161218.187500",
        "161219.187500",
        "161220.187500",
        "161221.187500",
        "161222.187500",
        "161223.187500",
        "161224.187500",
        "161225.187500",
        "161226.187500",
        "161227.187500",
        "161228.187500",
        "161229.187500",
        "161230.187500",
        "161231.187500",
        "161232.187500",
        "161233.187500",
        "161234.187500",
        "161235.187500",
        "161236.187500",
        "161237.187500",
        "161238.187500",
        "161239.187500",
        "161240.187500",
        "161241.187500",
        "161242.187500",
        "161243.187500",
        "161244.187500",
        "161245.187500",
        "161246.187500",
        "161247.187500",
        "161248.187500",
        "161249.187500",
        "161250.187500",
        "161251.187500",
        "161252.187500",
        "161253.187500",
        "161254.187500",
        "161255.187500",
        "161256.187500",
        "161257.187500",
        "161258.187500",
        "161259.187500",
        "161300.187500",
        "161301.187500",
        "161302.187500",
        "161303.187500",
        "161304.187500",
        "161305.187500",
        "161306.187500",
        "161307.187500",
        "161308.187500",
        "161309.187500",
        "161310.187500",
        "161311.187500",
        "161312.187500",
        "161313.187500",
        "161314.187500",
        "161315.187500",
        "161316.187500",
        "161317.187500",
        "161318.187500",
        "161319.187500",
        "161320.187500",
        "161321.187500",
        "161322.187500",
        "161323.187500",
        "161324.187500",
        "161325.187500",
        "161326.187500",
        "161327.187500",
        "161328.187500",
        "161329.187500",
        "161330.187500",
        "161331.187500",
        "161332.187500",
        "161333.187500",
        "161334.187500",
        "161335.187500",
        "161336.187500",
        "161337.187500",
        "161338.187500",
        "161339.187500",
        "161340.187500",
        "161341.187500",
        "161342.187500",
        "161343.187500",
        "161344.187500",
        "161345.187500",
        "161346.187500",
        "161347.187500",
        "161348.187500",
        "161349.187500",
        "161350.187500",
        "161351.187500",
        "161352.187500",
        "161353.187500",
        "161354.187500",
        "161355.187500",
        "161356.187500",
        "161357.187500",
        "161358.187500",
        "161359.187500",
        "161400.187500",
        "161401.187500",
        "161402.187500",
        "161403.187500",
        "161404.187500",
        "161405.187500",
        "161406.187500",
        "161407.187500",
        "161408.187500",
        "161409.187500",
        "161410.187500",
        "161411.187500",
        "161412.187500",
        "161413.187500",
        "161414.187500",
        "161415.187500",
        "161416.187500",
        "161417.187500",
        "161418.187500",
        "161419.187500",
        "161420.187500",
        "161421.187500",
        "161422.187500",
        "161423.187500",
        "161424.187500",
        "161425.187500",
        "161426.187500",
        "161427.187500",
        "161428.187500",
        "161429.187500",
        "161430.187500",
        "161431.187500",
        "161432.187500",
        "161433.187500",
        "161434.187500",
        "161435.187500",
        "161436.187500",
        "161437.187500",
        "161438.187500",
        "161439.187500",
        "161440.187500",
        "161441.187500",
        "161442.187500",
        "161443.187500",
        "161444.187500",
        "161445.187500",
        "161446.187500",
        "161447.187500",
        "161448.187500",
        "161449.187500",
        "161450.187500",
        "161451.187500",
        "161452.187500",
        "161453.187500",
        "161454.187500",
        "161455.187500",
        "161456.187500",
        "161457.187500",
        "161458.187500",
        "161459.187500",
        "161500.187500",
        "161501.187500",
        "161502.187500",
        "161503.187500",
        "161504.187500",
        "161505.187500",
        "161506.187500",
        "161507.187500",
        "161508.187500",
        "161509.187500",
        "161510.187500",
        "161511.187500",
        "161512.187500",
        "161513.187500",
        "161514.187500",
        "161515.187500",
        "161516.187500",
        "161517.187500",
        "161518.187500",
        "161519.187500",
        "161520.187500",
        "161521.187500",
        "161522.187500",
        "161523.187500",
        "161524.187500",
        "161525.187500",
        "161526.187500",
        "161527.187500",
        "161528.187500",
        "161529.187500",
        "161530.187500",
        "161531.187500",
        "161532.187500",
        "161533.187500",
        "161534.187500",
        "161535.187500",
        "161536.187500",
        "161537.187500",
        "161538.187500",
        "161539.187500",
        "161540.187500",
        "161541.187500",
        "161542.187500",
        "161543.187500",
        "161544.187500",
        "161545.187500",
        "161546.187500",
        "161547.187500",
        "161548.187500",
        "161549.187500",
        "161550.187500",
        "161551.187500",
        "161552.187500",
        "161553.187500",
        "161554.187500",
        "161555.187500",
        "161556.187500",
        "161557.187500"
      ],
      "ContentTime": [
        "161203.776000",
        "161204.622000",
        "161205.627000",
        "161206.641000",
        "161207.652000",
        "161208.615000",
        "161209.616000",
        "161210.628000",
        "161211.619000",
        "161212.622000",
        "161213.647000",
        "161214.654000",
        "161215.605000",
        "161216.614000",
        "161217.637000",
        "161218.618000",
        "161219.617000",
        "161220.620000",
        "161221.611000",
        "161222.601000",
        "161223.623000",
        "161224.670000",
        "161225.615000",
        "161226.620000",
        "161227.624000",
        "161228.614000",
        "161229.624000",
        "161230.622000",
        "161231.598000",
        "161232.653000",
        "161233.615000",
        "161234.617000",
        "161235.622000",
        "161236.633000",
        "161237.618000",
        "161238.651000",
        "161239.622000",
        "161240.628000",
        "161241.660000",
        "161242.627000",
        "161243.656000",
        "161244.637000",
        "161245.630000",
        "161246.647000",
        "161247.631000",
        "161248.627000",
        "161249.634000",
        "161250.665000",
        "161251.637000",
        "161252.638000",
        "161253.649000",
        "161254.612000",
        "161255.629000",
        "161256.620000",
        "161257.637000",
        "161258.603000",
        "161259.628000",
        "161300.627000",
        "161301.613000",
        "161302.605000",
        "161303.629000",
        "161304.634000",
        "161305.623000",
        "161306.625000",
        "161307.615000",
        "161308.638000",
        "161309.623000",
        "161310.640000",
        "161311.642000",
        "161312.659000",
        "161313.606000",
        "161314.621000",
        "161315.605000",
        "161316.610000",
        "161317.631000",
        "161318.619000",
        "161319.647000",
        "161320.646000",
        "161321.625000",
        "161322.612000",
        "161323.626000",
        "161324.626000",
        "161325.603000",
        "161326.610000",
        "161327.697000",
        "161328.612000",
        "161329.604000",
        "161330.651000",
        "161331.634000",
        "161332.642000",
        "161333.604000",
        "161334.596000",
        "161335.627000",
        "161336.625000",
        "161337.590000",
        "161338.633000",
        "161339.619000",
        "161340.632000",
        "161341.591000",
        "161342.626000",
        "161343.634000",
        "161344.650000",
        "161345.644000",
        "161346.646000",
        "161347.627000",
        "161348.699000",
        "161349.644000",
        "161350.655000",
        "161351.643000",
        "161352.631000",
        "161353.663000",
        "161354.627000",
        "161355.665000",
        "161356.646000",
        "161357.637000",
        "161358.625000",
        "161359.649000",
        "161400.634000",
        "161401.647000",
        "161402.644000",
        "161403.639000",
        "161404.679000",
        "161405.646000",
        "161406.636000",
        "161407.644000",
        "161408.690000",
        "161409.636000",
        "161410.636000",
        "161411.624000",
        "161412.651000",
        "161413.658000",
        "161414.643000",
        "161415.652000",
        "161416.667000",
        "161417.720000",
        "161418.667000",
        "161419.631000",
        "161420.637000",
        "161421.637000",
        "161422.635000",
        "161423.635000",
        "161424.695000",
        "161425.638000",
        "161426.717000",
        "161427.658000",
        "161428.661000",
        "161429.667000",
        "161430.630000",
        "161431.678000",
        "161432.668000",
        "161433.646000",
        "161434.650000",
        "161435.648000",
        "161436.669000",
        "161437.658000",
        "161438.661000",
        "161439.644000",
        "161440.663000",
        "161441.638000",
        "161442.636000",
        "161443.644000",
        "161444.635000",
        "161445.619000",
        "161446.642000",
        "161447.632000",
        "161448.685000",
        "161449.656000",
        "161450.627000",
        "161451.599000",
        "161452.624000",
        "161453.615000",
        "161454.676000",
        "161455.653000",
        "161456.648000",
        "161457.629000",
        "161458.613000",
        "161459.625000",
        "161500.607000",
        "161501.617000",
        "161502.664000",
        "161503.633000",
        "161504.641000",
        "161505.597000",
        "161506.656000",
        "161507.626000",
        "161508.625000",
        "161509.641000",
        "161510.662000",
        "161511.628000",
        "161512.618000",
        "161513.625000",
        "161514.631000",
        "161515.616000",
        "161516.629000",
        "161517.601000",
        "161518.628000",
        "161519.657000",
        "161520.643000",
        "161521.624000",
        "161522.634000",
        "161523.655000",
        "161524.634000",
        "161525.614000",
        "161526.602000",
        "161527.621000",
        "161528.642000",
        "161529.608000",
        "161530.603000",
        "161531.618000",
        "161532.635000",
        "161533.639000",
        "161534.621000",
        "161535.614000",
        "161536.624000",
        "161537.687000",
        "161538.636000",
        "161539.623000",
        "161540.642000",
        "161541.621000",
        "161542.637000",
        "161543.613000",
        "161544.627000",
        "161545.679000",
        "161546.616000",
        "161547.629000",
        "161548.639000",
        "161549.675000",
        "161550.631000",
        "161551.642000",
        "161552.660000",
        "161553.622000",
        "161554.643000",
        "161555.632000",
        "161556.648000",
        "161557.649000",
        "161558.644000"
      ],
      "InstanceCreationTime": [
        "161203.776000",
        "161204.622000",
        "161205.627000",
        "161206.641000",
        "161207.652000",
        "161208.615000",
        "161209.616000",
        "161210.628000",
        "161211.619000",
        "161212.622000",
        "161213.647000",
        "161214.654000",
        "161215.605000",
        "161216.614000",
        "161217.637000",
        "161218.618000",
        "161219.617000",
        "161220.620000",
        "161221.611000",
        "161222.601000",
        "161223.623000",
        "161224.670000",
        "161225.615000",
        "161226.620000",
        "161227.624000",
        "161228.614000",
        "161229.624000",
        "161230.622000",
        "161231.598000",
        "161232.653000",
        "161233.615000",
        "161234.617000",
        "161235.622000",
        "161236.633000",
        "161237.618000",
        "161238.651000",
        "161239.622000",
        "161240.628000",
        "161241.660000",
        "161242.627000",
        "161243.656000",
        "161244.637000",
        "161245.630000",
        "161246.647000",
        "161247.631000",
        "161248.627000",
        "161249.634000",
        "161250.665000",
        "161251.637000",
        "161252.638000",
        "161253.649000",
        "161254.612000",
        "161255.629000",
        "161256.620000",
        "161257.637000",
        "161258.603000",
        "161259.628000",
        "161300.627000",
        "161301.613000",
        "161302.605000",
        "161303.629000",
        "161304.634000",
        "161305.623000",
        "161306.625000",
        "161307.615000",
        "161308.638000",
        "161309.623000",
        "161310.640000",
        "161311.642000",
        "161312.659000",
        "161313.606000",
        "161314.621000",
        "161315.605000",
        "161316.610000",
        "161317.631000",
        "161318.619000",
        "161319.647000",
        "161320.646000",
        "161321.625000",
        "161322.612000",
        "161323.626000",
        "161324.626000",
        "161325.603000",
        "161326.610000",
        "161327.697000",
        "161328.612000",
        "161329.604000",
        "161330.651000",
        "161331.634000",
        "161332.642000",
        "161333.604000",
        "161334.596000",
        "161335.627000",
        "161336.625000",
        "161337.590000",
        "161338.633000",
        "161339.619000",
        "161340.632000",
        "161341.591000",
        "161342.626000",
        "161343.634000",
        "161344.650000",
        "161345.644000",
        "161346.646000",
        "161347.627000",
        "161348.699000",
        "161349.644000",
        "161350.655000",
        "161351.643000",
        "161352.631000",
        "161353.663000",
        "161354.627000",
        "161355.665000",
        "161356.646000",
        "161357.637000",
        "161358.625000",
        "161359.649000",
        "161400.634000",
        "161401.647000",
        "161402.644000",
        "161403.639000",
        "161404.679000",
        "161405.646000",
        "161406.636000",
        "161407.644000",
        "161408.690000",
        "161409.636000",
        "161410.636000",
        "161411.624000",
        "161412.651000",
        "161413.658000",
        "161414.643000",
        "161415.652000",
        "161416.667000",
        "161417.720000",
        "161418.667000",
        "161419.631000",
        "161420.637000",
        "161421.637000",
        "161422.635000",
        "161423.635000",
        "161424.695000",
        "161425.638000",
        "161426.717000",
        "161427.658000",
        "161428.661000",
        "161429.667000",
        "161430.630000",
        "161431.678000",
        "161432.668000",
        "161433.646000",
        "161434.650000",
        "161435.648000",
        "161436.669000",
        "161437.658000",
        "161438.661000",
        "161439.644000",
        "161440.663000",
        "161441.638000",
        "161442.636000",
        "161443.644000",
        "161444.635000",
        "161445.619000",
        "161446.642000",
        "161447.632000",
        "161448.685000",
        "161449.656000",
        "161450.627000",
        "161451.599000",
        "161452.624000",
        "161453.615000",
        "161454.676000",
        "161455.653000",
        "161456.648000",
        "161457.629000",
        "161458.613000",
        "161459.625000",
        "161500.607000",
        "161501.617000",
        "161502.664000",
        "161503.633000",
        "161504.641000",
        "161505.597000",
        "161506.656000",
        "161507.626000",
        "161508.625000",
        "161509.641000",
        "161510.662000",
        "161511.628000",
        "161512.618000",
        "161513.625000",
        "161514.631000",
        "161515.616000",
        "161516.629000",
        "161517.601000",
        "161518.628000",
        "161519.657000",
        "161520.643000",
        "161521.624000",
        "161522.634000",
        "161523.655000",
        "161524.634000",
        "161525.614000",
        "161526.602000",
        "161527.621000",
        "161528.642000",
        "161529.608000",
        "161530.603000",
        "161531.618000",
        "161532.635000",
        "161533.639000",
        "161534.621000",
        "161535.614000",
        "161536.624000",
        "161537.687000",
        "161538.636000",
        "161539.623000",
        "161540.642000",
        "161541.621000",
        "161542.637000",
        "161543.613000",
        "161544.627000",
        "161545.679000",
        "161546.616000",
        "161547.629000",
        "161548.639000",
        "161549.675000",
        "161550.631000",
        "161551.642000",
        "161552.660000",
        "161553.622000",
        "161554.643000",
        "161555.632000",
        "161556.648000",
        "161557.649000",
        "161558.644000"
      ],
      "InstanceNumber": [
        1,
        2,
        3,
        4,
        5,
        6,
        7,
        8,
        9,
        10,
        11,
        12,
        13,
        14,
        15,
        16,
        17,
        18,
        19,
        20,
        21,
        22,
        23,
        24,
        25,
        26,
        27,
        28,
        29,
        30,
        31,
        32,
        33,
        34,
        35,
        36,
        37,
        38,
        39,
        40,
        41,
        42,
        43,
        44,
        45,
        46,
        47,
        48,
        49,
        50,
        51,
        52,
        53,
        54,
        55,
        56,
        57,
        58,
        59,
        60,
        61,
        62,
        63,
        64,
        65,
        66,
        67,
        68,
        69,
        70,
        71,
        72,
        73,
        74,
        75,
        76,
        77,
        78,
        79,
        80,
        81,
        82,
        83,
        84,
        85,
        86,
        87,
        88,
        89,
        90,
        91,
        92,
        93,
        94,
        95,
        96,
        97,
        98,
        99,
        100,
        101,
        102,
        103,
        104,
        105,
        106,
        107,
        108,
        109,
        110,
        111,
        112,
        113,
        114,
        115,
        116,
        117,
        118,
        119,
        120,
        121,
        122,
        123,
        124,
        125,
        126,
        127,
        128,
        129,
        130,
        131,
        132,
        133,
        134,
        135,
        136,
        137,
        138,
        139,
        140,
        141,
        142,
        143,
        144,
        145,
        146,
        147,
        148,
        149,
        150,
        151,
        152,
        153,
        154,
        155,
        156,
        157,
        158,
        159,
        160,
        161,
        162,
        163,
        164,
        165,
        166,
        167,
        168,
        169,
        170,
        171,
        172,
        173,
        174,
        175,
        176,
        177,
        178,
        179,
        180,
        181,
        182,
        183,
        184,
        185,
        186,
        187,
        188,
        189,
        190,
        191,
        192,
        193,
        194,
        195,
        196,
        197,
        198,
        199,
        200,
        201,
        202,
        203,
        204,
        205,
        206,
        207,
        208,
        209,
        210,
        211,
        212,
        213,
        214,
        215,
        216,
        217,
        218,
        219,
        220,
        221,
        222,
        223,
        224,
        225,
        226,
        227,
        228,
        229,
        230,
        231,
        232,
        233,
        234,
        235,
        236
      ],
      "LargestImagePixelValue": [
        609,
        908,
        688,
        587,
        690,
        628,
        561,
        766,
        708,
        967,
        717,
        654,
        780,
        631,
        875,
        671,
        839,
        838,
        679,
        903,
        603,
        620,
        948,
        1302,
        622,
        717,
        783,
        579,
        558,
        598,
        583,
        689,
        984,
        978,
        935,
        919,
        650,
        734,
        601,
        699,
        595,
        677,
        592,
        702,
        570,
        771,
        575,
        726,
        587,
        626,
        629,
        575,
        631,
        660,
        900,
        626,
        714,
        627,
