{
  "AcquisitionMatrixPE": 96,
  "AcquisitionNumber": 1,
  "AcquisitionTime": "19:08:26.207500",
  "BandwidthPerPixelPhaseEncode": 18.939,
  "BaseResolution": 96,
  "BodyPartExamined": "BRAIN",
  "ConsistencyInfo": "N4_VE11C_LATEST_20160120",
  "ConversionSoftware": "dcm2niix",
  "ConversionSoftwareVersion": "v1.0.20171215 (OpenJPEG build) GCC6.3.0",
  "DerivedVendorReportedEchoSpacing": 0.000550011,
  "DeviceSerialNumber": "66112",
  "DwellTime": 2.2e-06,
  "EchoTime": 0.033,
  "EchoTrainLength": 96,
  "EffectiveEchoSpacing": 0.000550011,
  "FlipAngle": 59,
  "ImageOrientationPatientDICOM": [0.9997, 0.0199639, -0.0141837, -0.0193698, 0.998977, 0.0408542],
  "ImageType": [
    "ORIGINAL",
    "PRIMARY",
    "FMRI",
    "NONE",
    "ND",
    "NORM",
    "MOSAIC"
],
  "InPlanePhaseEncodingDirectionDICOM": "COL",
  "InstitutionAddress": "Maynard_3_Hanover_NH_US_03755",
  "InstitutionName": "Dartmouth_College_-_PBS",
  "InstitutionalDepartmentName": "Department",
  "MRAcquisitionType": "2D",
  "MagneticFieldStrength": 3,
  "Manufacturer": "Siemens",
  "ManufacturersModelName": "Prisma",
  "Modality": "MR",
  "MultibandAccelerationFactor": 4,
  "PartialFourier": 1,
  "PatientPosition": "HFS",
  "PercentPhaseFOV": 100,
  "PhaseEncodingDirection": "j-",
  "PhaseEncodingSteps": 96,
  "PhaseResolution": 1,
  "PixelBandwidth": 2365,
  "ProcedureStepDescription": "Gobbini_Matteo_1038_hyperface",
  "ProtocolName": "func_run-05_task-localizer",
  "PulseSequenceDetails": "%SiemensSeq%_ep2d_bold",
  "ReceiveCoilActiveElements": "HEA;HEP",
  "ReceiveCoilName": "Head_32",
  "ReconMatrixPE": 96,
  "RepetitionTime": 1,
  "SAR": 0.0545372,
  "ScanOptions": "FS",
  "ScanningSequence": "EP",
  "SequenceName": "_epfid2d1_96",
  "SequenceVariant": "SK",
  "SeriesDescription": "func_run-05_task-localizer",
  "SeriesNumber": 35,
  "ShimSetting": [4139, -7737, -7311, 767, -60, -34, 115, 98],
  "SliceThickness": 2.5,
  "SliceTiming": [0.735, 0, 0.49, 0.0825, 0.5725, 0.165, 0.655, 0.3275, 0.8175, 0.41, 0.9, 0.245, 0.735, 0, 0.49, 0.0825, 0.5725, 0.165, 0.655, 0.3275, 0.8175, 0.41, 0.9, 0.245, 0.735, 0, 0.49, 0.0825, 0.5725, 0.165, 0.655, 0.3275, 0.8175, 0.41, 0.9, 0.245, 0.735, 0, 0.49, 0.0825, 0.5725, 0.165, 0.655, 0.3275, 0.8175, 0.41, 0.9, 0.245],
  "SoftwareVersions": "syngo_MR_E11",
  "SpacingBetweenSlices": 2.5,
  "StationName": "AWP66112",
  "TotalReadoutTime": 0.0522511,
  "TxRefAmp": 248.358,
  "dcmmeta_affine": [
    [-2.4992501735687256, -0.04842447116971016, -0.03746207058429718, 123.6741714477539],
    [-0.04990965127944946, 2.497443437576294, 0.10141805559396744, -108.61404418945312],
    [-0.03545931726694107, -0.10213552415370941, 2.4976611137390137, -57.86848449707031],
    [0.0, 0.0, 0.0, 1.0]
],
  "dcmmeta_reorient_transform": [
    [0.0, -1.0, 0.0, 95.0],
    [1.0, 0.0, 0.0, 0.0],
    [0.0, 0.0, 1.0, 0.0],
    [0.0, 0.0, 0.0, 1.0]
],
  "dcmmeta_shape": [96, 96, 48, 236],
  "dcmmeta_slice_dim": 2,
  "dcmmeta_version": 0.6,
  "global": {
    "const": {
      "AccessionNumber": "A001355",
      "AcquisitionMatrix": [96, 0, 0, 96],
      "AngioFlag": "N",
      "BitsAllocated": 16,
      "BitsStored": 12,
      "BodyPartExamined": "BRAIN",
      "Columns": 672,
      "EchoNumbers": 1,
      "EchoTime": 33.0,
      "EchoTrainLength": 96,
      "FlipAngle": 59.0,
      "HighBit": 11,
      "ImageOrientationPatient": [0.99970008811736, 0.01996386038869, -0.0141837264682, -0.019369788615, 0.99897734946758, 0.0408542107958],
      "ImagePositionPatient": [-824.9116602135, -862.28075110974, -86.77410985036],
      "ImageType": [
        "ORIGINAL",
        "PRIMARY",
        "FMRI",
        "NONE",
        "ND",
        "NORM",
        "MOSAIC"
],
      "ImagedNucleus": "1H",
      "ImagingFrequency": 123.252287,
      "InPlanePhaseEncodingDirection": "COL",
      "MRAcquisitionType": "2D",
      "MagneticFieldStrength": 3.0,
      "Manufacturer": "SIEMENS",
      "ManufacturerModelName": "Prisma",
      "Modality": "MR",
      "NumberOfAverages": 1.0,
      "NumberOfPhaseEncodingSteps": 96,
      "PercentPhaseFieldOfView": 100.0,
      "PercentSampling": 100.0,
      "PerformedProcedureStepStartTime": "183646.702000",
      "PhotometricInterpretation": "MONOCHROME2",
      "PixelBandwidth": 2365.0,
      "PixelRepresentation": 0,
      "PixelSpacing": [2.5, 2.5],
      "PositionReferenceIndicator": "",
      "ProtocolName": "func_run-05_task-localizer",
      "RepetitionTime": 1000.0,
      "Rows": 672,
      "SAR": 0.05453722302929,
      "SamplesPerPixel": 1,
      "ScanOptions": "FS",
      "ScanningSequence": "EP",
      "SequenceName": "*epfid2d1_96",
      "SequenceVariant": "SK",
      "SeriesDescription": "func_run-05_task-localizer",
      "SeriesNumber": 35,
      "SeriesTime": "190827.438000",
      "SliceLocation": -64.073752871417,
      "SliceThickness": 2.5,
      "SmallestImagePixelValue": 0,
      "SoftwareVersions": "syngo MR E11",
      "SpacingBetweenSlices": 2.4999999224604,
      "SpecificCharacterSet": "ISO_IR 100",
      "StudyID": "3",
      "StudyTime": "183646.645000",
      "TransmitCoilName": "Body",
      "VariableFlipAngleFlag": "N",
      "WindowCenterWidthExplanation": "Algo1",
      "dBdt": 0.0},
    "slices": {}
  },
  "time": {
    "samples": {
      "AcquisitionNumber": [1, 2, 3, 4, 5, 6, 7, 8, 9, 10, 11, 12, 13, 14, 15, 16, 17, 18, 19, 20, 21, 22, 23, 24, 25, 26, 27, 28, 29, 30, 31, 32, 33, 34, 35, 36, 37, 38, 39, 40, 41, 42, 43, 44, 45, 46, 47, 48, 49, 50, 51, 52, 53, 54, 55, 56, 57, 58, 59, 60, 61, 62, 63, 64, 65, 66, 67, 68, 69, 70, 71, 72, 73, 74, 75, 76, 77, 78, 79, 80, 81, 82, 83, 84, 85, 86, 87, 88, 89, 90, 91, 92, 93, 94, 95, 96, 97, 98, 99, 100, 101, 102, 103, 104, 105, 106, 107, 108, 109, 110, 111, 112, 113, 114, 115, 116, 117, 118, 119, 120, 121, 122, 123, 124, 125, 126, 127, 128, 129, 130, 131, 132, 133, 134, 135, 136, 137, 138, 139, 140, 141, 142, 143, 144, 145, 146, 147, 148, 149, 150, 151, 152, 153, 154, 155, 156, 157, 158, 159, 160, 161, 162, 163, 164, 165, 166, 167, 168, 169, 170, 171, 172, 173, 174, 175, 176, 177, 178, 179, 180, 181, 182, 183, 184, 185, 186, 187, 188, 189, 190, 191, 192, 193, 194, 195, 196, 197, 198, 199, 200, 201, 202, 203, 204, 205, 206, 207, 208, 209, 210, 211, 212, 213, 214, 215, 216, 217, 218, 219, 220, 221, 222, 223, 224, 225, 226, 227, 228, 229, 230, 231, 232, 233, 234, 235, 236],
      "AcquisitionTime": ["190826.207500", "190827.207500", "190828.207500", "190829.207500", "190830.207500", "190831.207500", "190832.207500", "190833.207500", "190834.207500", "190835.207500", "190836.207500", "190837.207500", "190838.207500", "190839.207500", "190840.207500", "190841.207500", "190842.207500", "190843.207500", "190844.207500", "190845.207500", "190846.207500", "190847.207500", "190848.207500", "190849.207500", "190850.207500", "190851.207500", "190852.207500", "190853.207500", "190854.207500", "190855.207500", "190856.207500", "190857.207500", "190858.207500", "190859.207500", "190900.207500", "190901.207500", "190902.207500", "190903.207500", "190904.207500", "190905.207500", "190906.207500", "190907.207500", "190908.207500", "190909.207500", "190910.207500", "190911.207500", "190912.207500", "190913.207500", "190914.207500", "190915.207500", "190916.207500", "190917.207500", "190918.207500", "190919.207500", "190920.207500", "190921.207500", "190922.207500", "190923.207500", "190924.207500", "190925.207500", "190926.207500", "190927.207500", "190928.207500", "190929.207500", "190930.207500", "190931.207500", "190932.207500", "190933.207500", "190934.207500", "190935.207500", "190936.207500", "190937.207500", "190938.207500", "190939.207500", "190940.207500", "190941.207500", "190942.207500", "190943.207500", "190944.207500", "190945.207500", "190946.207500", "190947.207500", "190948.207500", "190949.207500", "190950.207500", "190951.207500", "190952.207500", "190953.207500", "190954.207500", "190955.207500", "190956.207500", "190957.207500", "190958.207500", "190959.207500", "191000.207500", "191001.207500", "191002.207500", "191003.207500", "191004.207500", "191005.207500", "191006.207500", "191007.207500", "191008.207500", "191009.207500", "191010.207500", "191011.207500", "191012.207500", "191013.207500", "191014.207500", "191015.207500", "191016.207500", "191017.207500", "191018.207500", "191019.207500", "191020.207500", "191021.207500", "191022.207500", "191023.207500", "191024.207500", "191025.207500", "191026.207500", "191027.207500", "191028.207500", "191029.207500", "191030.207500", "191031.207500", "191032.207500", "191033.207500", "191034.207500", "191035.207500", "191036.207500", "191037.207500", "191038.207500", "191039.207500", "191040.207500", "191041.207500", "191042.207500", "191043.207500", "191044.207500", "191045.207500", "191046.207500", "191047.207500", "191048.207500", "191049.207500", "191050.207500", "191051.207500", "191052.207500", "191053.207500", "191054.207500", "191055.207500", "191056.207500", "191057.207500", "191058.207500", "191059.207500", "191100.207500", "191101.207500", "191102.207500", "191103.207500", "191104.207500", "191105.207500", "191106.207500", "191107.207500", "191108.207500", "191109.207500", "191110.207500", "191111.207500", "191112.207500", "191113.207500", "191114.207500", "191115.207500", "191116.207500", "191117.207500", "191118.207500", "191119.207500", "191120.207500", "191121.207500", "191122.207500", "191123.207500", "191124.207500", "191125.207500", "191126.207500", "191127.207500", "191128.207500", "191129.207500", "191130.207500", "191131.207500", "191132.207500", "191133.207500", "191134.207500", "191135.207500", "191136.207500", "191137.207500", "191138.207500", "191139.207500", "191140.207500", "191141.207500", "191142.207500", "191143.207500", "191144.207500", "191145.207500", "191146.207500", "191147.207500", "191148.207500", "191149.207500", "191150.207500", "191151.207500", "191152.207500", "191153.207500", "191154.207500", "191155.207500", "191156.207500", "191157.207500", "191158.207500", "191159.207500", "191200.207500", "191201.207500", "191202.207500", "191203.207500", "191204.207500", "191205.207500", "191206.207500", "191207.207500", "191208.207500", "191209.207500", "191210.207500", "191211.207500", "191212.207500", "191213.207500", "191214.207500", "191215.207500", "191216.207500", "191217.207500", "191218.207500", "191219.207500", "191220.207500", "191221.207500"],
      "ContentTime": ["190827.442000", "190828.315000", "190829.305000", "190830.300000", "190831.282000", "190832.271000", "190833.299000", "190834.314000", "190835.270000", "190836.263000", "190837.285000", "190838.267000", "190839.326000", "190840.273000", "190841.283000", "190842.288000", "190843.259000", "190844.249000", "190845.277000", "190846.277000", "190847.284000", "190848.313000", "190849.294000", "190850.292000", "190851.328000", "190852.282000", "190853.291000", "190854.305000", "190855.278000", "190856.281000", "190857.288000", "190858.267000", "190859.276000", "190900.311000", "190901.292000", "190902.293000", "190903.237000", "190904.280000", "190905.308000", "190906.287000", "190907.275000", "190908.280000", "190909.268000", "190910.293000", "190911.245000", "190912.284000", "190913.274000", "190914.271000", "190915.280000", "190916.291000", "190917.269000", "190918.267000", "190919.277000", "190920.284000", "190921.281000", "190922.290000", "190923.291000", "190924.267000", "190925.308000", "190926.265000", "190927.325000", "190928.299000", "190929.297000", "190930.319000", "190931.292000", "190932.289000", "190933.275000", "190934.281000", "190935.299000", "190936.322000", "190937.305000", "190938.282000", "190939.275000", "190940.278000", "190941.283000", "190942.269000", "190943.270000", "190944.313000", "190945.296000", "190946.288000", "190947.293000", "190948.333000", "190949.290000", "190950.285000", "190951.288000", "190952.277000", "190953.264000", "190954.298000", "190955.284000", "190956.282000", "190957.333000", "190958.367000", "190959.283000", "191000.262000", "191001.273000", "191002.335000", "191003.304000", "191004.280000", "191005.303000", "191006.290000", "191007.280000", "191008.300000", "191009.294000", "191010.279000", "191011.281000", "191012.277000", "191013.268000", "191014.320000", "191015.294000", "191016.360000", "191017.291000", "191018.274000", "191019.258000", "191020.294000", "191021.294000", "191022.274000", "191023.313000", "191024.232000", "191025.286000", "191026.315000", "191027.314000", "191028.322000", "191029.299000", "191030.285000", "191031.294000", "191032.315000", "191033.368000", "191034.296000", "191035.284000", "191036.282000", "191037.314000", "191038.277000", "191039.287000", "191040.274000", "191041.280000", "191042.304000", "191043.271000", "191044.319000", "191045.282000", "191046.247000", "191047.300000", "191048.301000", "191049.268000", "191050.275000", "191051.292000", "191052.274000", "191053.296000", "191054.279000", "191055.294000", "191056.320000", "191057.308000", "191058.296000", "191059.283000", "191100.323000", "191101.300000", "191102.288000", "191103.285000", "191104.307000", "191105.278000", "191106.310000", "191107.282000", "191108.284000", "191109.280000", "191110.261000", "191111.303000", "191112.357000", "191113.254000", "191114.274000", "191115.271000", "191116.307000", "191117.293000", "191118.267000", "191119.303000", "191120.262000", "191121.276000", "191122.288000", "191123.269000", "191124.289000", "191125.279000", "191126.276000", "191127.273000", "191128.290000", "191129.285000", "191130.281000", "191131.304000", "191132.270000", "191133.278000", "191134.280000", "191135.296000", "191136.299000", "191137.262000", "191138.313000", "191139.304000", "191140.290000", "191141.288000", "191142.283000", "191143.305000", "191144.254000", "191145.283000", "191146.282000", "191147.270000", "191148.270000", "191149.268000", "191150.305000", "191151.286000", "191152.303000", "191153.288000", "191154.280000", "191155.315000", "191156.327000", "191157.265000", "191158.280000", "191159.321000", "191200.307000", "191201.289000", "191202.291000", "191203.271000", "191204.299000", "191205.265000", "191206.274000", "191207.301000", "191208.274000", "191209.269000", "191210.280000", "191211.270000", "191212.266000", "191213.285000", "191214.289000", "191215.324000", "191216.281000", "191217.272000", "191218.301000", "191219.271000", "191220.292000", "191221.286000", "191222.317000"],
      "InstanceCreationTime": ["190827.442000", "190828.315000", "190829.305000", "190830.300000", "190831.282000", "190832.271000", "190833.299000", "190834.314000", "190835.270000", "190836.263000", "190837.285000", "190838.267000", "190839.326000", "190840.273000", "190841.283000", "190842.288000", "190843.259000", "190844.249000", "190845.277000", "190846.277000", "190847.284000", "190848.313000", "190849.294000", "190850.292000", "190851.328000", "190852.282000", "190853.291000", "190854.305000", "190855.278000", "190856.281000", "190857.288000", "190858.267000", "190859.276000", "190900.311000", "190901.292000", "190902.293000", "190903.237000", "190904.280000", "190905.308000", "190906.287000", "190907.275000", "190908.280000", "190909.268000", "190910.293000", "190911.245000", "190912.284000", "190913.274000", "190914.271000", "190915.280000", "190916.291000", "190917.269000", "190918.267000", "190919.277000", "190920.284000", "190921.281000", "190922.290000", "190923.291000", "190924.267000", "190925.308000", "190926.265000", "190927.325000", "190928.299000", "190929.297000", "190930.319000", "190931.292000", "190932.289000", "190933.275000", "190934.281000", "190935.299000", "190936.322000", "190937.305000", "190938.282000", "190939.275000", "190940.278000", "190941.283000", "190942.269000", "190943.270000", "190944.313000", "190945.296000", "190946.288000", "190947.293000", "190948.333000", "190949.290000", "190950.285000", "190951.288000", "190952.277000", "190953.264000", "190954.298000", "190955.284000", "190956.282000", "190957.333000", "190958.367000", "190959.283000", "191000.262000", "191001.273000", "191002.335000", "191003.304000", "191004.280000", "191005.303000", "191006.290000", "191007.280000", "191008.300000", "191009.294000", "191010.279000", "191011.281000", "191012.277000", "191013.268000", "191014.320000", "191015.294000", "191016.360000", "191017.291000", "191018.274000", "191019.258000", "191020.294000", "191021.294000", "191022.274000", "191023.313000", "191024.232000", "191025.286000", "191026.315000", "191027.314000", "191028.322000", "191029.299000", "191030.285000", "191031.294000", "191032.315000", "191033.368000", "191034.296000", "191035.284000", "191036.282000", "191037.314000", "191038.277000", "191039.287000", "191040.274000", "191041.280000", "191042.304000", "191043.271000", "191044.319000", "191045.282000", "191046.247000", "191047.300000", "191048.301000", "191049.268000", "191050.275000", "191051.292000", "191052.274000", "191053.296000", "191054.279000", "191055.294000", "191056.320000", "191057.308000", "191058.296000", "191059.283000", "191100.323000", "191101.300000", "191102.288000", "191103.285000", "191104.307000", "191105.278000", "191106.310000", "191107.282000", "191108.284000", "191109.280000", "191110.261000", "191111.303000", "191112.357000", "191113.254000", "191114.274000", "191115.271000", "191116.307000", "191117.293000", "191118.267000", "191119.303000", "191120.262000", "191121.276000", "191122.288000", "191123.269000", "191124.289000", "191125.279000", "191126.276000", "191127.273000", "191128.290000", "191129.285000", "191130.281000", "191131.304000", "191132.270000", "191133.278000", "191134.280000", "191135.296000", "191136.299000", "191137.262000", "191138.313000", "191139.304000", "191140.290000", "191141.288000", "191142.283000", "191143.305000", "191144.254000", "191145.283000", "191146.282000", "191147.270000", "191148.270000", "191149.268000", "191150.305000", "191151.286000", "191152.303000", "191153.288000", "191154.280000", "191155.315000", "191156.327000", "191157.265000", "191158.280000", "191159.321000", "191200.307000", "191201.289000", "191202.291000", "191203.271000", "191204.299000", "191205.265000", "191206.274000", "191207.301000", "191208.274000", "191209.269000", "191210.280000", "191211.270000", "191212.266000", "191213.285000", "191214.289000", "191215.324000", "191216.281000", "191217.272000", "191218.301000", "191219.271000", "191220.292000", "191221.286000", "191222.317000"],
      "InstanceNumber": [1, 2, 3, 4, 5, 6, 7, 8, 9, 10, 11, 12, 13, 14, 15, 16, 17, 18, 19, 20, 21, 22, 23, 24, 25, 26, 27, 28, 29, 30, 31, 32, 33, 34, 35, 36, 37, 38, 39, 40, 41, 42, 43, 44, 45, 46, 47, 48, 49, 50, 51, 52, 53, 54, 55, 56, 57, 58, 59, 60, 61, 62, 63, 64, 65, 66, 67, 68, 69, 70, 71, 72, 73, 74, 75, 76, 77, 78, 79, 80, 81, 82, 83, 84, 85, 86, 87, 88, 89, 90, 91, 92, 93, 94, 95, 96, 97, 98, 99, 100, 101, 102, 103, 104, 105, 106, 107, 108, 109, 110, 111, 112, 113, 114, 115, 116, 117, 118, 119, 120, 121, 122, 123, 124, 125, 126, 127, 128, 129, 130, 131, 132, 133, 134, 135, 136, 137, 138, 139, 140, 141, 142, 143, 144, 145, 146, 147, 148, 149, 150, 151, 152, 153, 154, 155, 156, 157, 158, 159, 160, 161, 162, 163, 164, 165, 166, 167, 168, 169, 170, 171, 172, 173, 174, 175, 176, 177, 178, 179, 180, 181, 182, 183, 184, 185, 186, 187, 188, 189, 190, 191, 192, 193, 194, 195, 196, 197, 198, 199, 200, 201, 202, 203, 204, 205, 206, 207, 208, 209, 210, 211, 212, 213, 214, 215, 216, 217, 218, 219, 220, 221, 222, 223, 224, 225, 226, 227, 228, 229, 230, 231, 232, 233, 234, 235, 236],
      "LargestImagePixelValue": [765, 784, 832, 708, 781, 742, 729, 714, 740, 732, 736, 704, 712, 733, 715, 758, 706, 708, 692, 689, 725, 686, 701, 762, 697, 714, 771, 713, 731, 769, 707, 737, 792, 695, 734, 735, 807, 776, 734, 731, 796, 881, 730, 719, 878, 747, 684, 721, 759, 737, 715, 738, 797, 707, 760, 804, 760, 733, 714, 692, 756, 771, 817, 1018, 817, 938, 708, 773, 757, 796, 725, 773, 696, 727, 728, 777, 768, 755, 792, 821, 698, 740, 846, 738, 848, 1071, 811, 868, 753, 718, 823, 746, 737, 927, 812, 750, 763, 764, 714, 778, 799, 720, 743, 695, 716, 718, 744, 707, 682, 670, 726, 722, 719, 715, 743, 788, 862, 1055, 1112, 1038, 1148, 961, 1042, 853, 771, 735, 814, 744, 951, 799, 713, 758, 775, 724, 752, 791, 1042, 715, 790, 744, 729, 804, 726, 706, 702, 693, 823, 810, 754, 724, 752, 809, 762, 744, 696, 693, 786, 751, 729, 805, 751, 696, 725, 778, 876, 703, 784, 733, 722, 828, 761, 827, 879, 737, 726, 743, 786, 762, 692, 714, 682, 716, 742, 687, 712, 720, 709, 771, 732, 794, 781, 825, 758, 904, 880, 848, 742, 775, 761, 799, 707, 684, 704, 695, 696, 681, 676, 684, 761, 738, 806, 699, 768, 782, 1088, 1165, 913, 863, 1033, 703, 723, 696, 700, 840, 716, 686, 765, 918, 884, 827, 814, 793, 716, 745, 747, 719],
      "WindowCenter": [361.0, 361.0, 360.0, 359.0, 361.0, 361.0, 360.0, 360.0, 361.0, 361.0, 361.0, 361.0, 361.0, 361.0, 361.0, 362.0, 362.0, 362.0, 363.0, 362.0, 362.0, 361.0, 362.0, 361.0, 361.0, 361.0, 361.0, 361.0, 361.0, 362.0, 361.0, 361.0, 362.0, 361.0, 362.0, 362.0, 363.0, 363.0, 362.0, 362.0, 363.0, 363.0, 362.0, 362.0, 363.0, 361.0, 361.0, 361.0, 361.0, 361.0, 362.0, 362.0, 363.0, 362.0, 363.0, 363.0, 362.0, 362.0, 362.0, 362.0, 363.0, 364.0, 364.0, 365.0, 363.0, 363.0, 361.0, 361.0, 361.0, 361.0, 361.0, 362.0, 361.0, 362.0, 362.0, 363.0, 362.0, 362.0, 363.0, 363.0, 362.0, 362.0, 363.0, 362.0, 362.0, 363.0, 361.0, 361.0, 360.0, 360.0, 361.0, 361.0, 361.0, 363.0, 362.0, 361.0, 361.0, 361.0, 361.0, 362.0, 362.0, 361.0, 362.0, 362.0, 363.0, 363.0, 364.0, 363.0, 363.0, 363.0, 364.0, 363.0, 363.0, 363.0, 364.0, 365.0, 366.0, 367.0, 367.0, 365.0, 364.0, 363.0, 363.0, 362.0, 361.0, 361.0, 361.0, 361.0, 363.0, 361.0, 361.0, 362.0, 362.0, 362.0, 362.0, 362.0, 364.0, 359.0, 360.0, 361.0, 361.0, 361.0, 360.0, 361.0, 362.0, 362.0, 363.0, 363.0, 362.0, 361.0, 361.0, 361.0, 361.0, 361.0, 361.0, 361.0, 362.0, 362.0, 362.0, 363.0, 362.0, 362.0, 362.0, 362.0, 363.0, 362.0, 362.0, 361.0, 361.0, 362.0, 362.0, 363.0, 363.0, 362.0, 361.0, 362.0, 362.0, 363.0, 363.0, 363.0, 362.0, 362.0, 361.0, 361.0, 361.0, 361.0, 361.0, 362.0, 363.0, 364.0, 363.0, 362.0, 361.0, 362.0, 362.0, 361.0, 361.0, 361.0, 362.0, 362.0, 362.0, 362.0, 362.0, 362.0, 362.0, 361.0, 362.0, 362.0, 364.0, 364.0, 364.0, 362.0, 362.0, 363.0, 365.0, 364.0, 362.0, 361.0, 362.0, 359.0, 359.0, 358.0, 359.0, 361.0, 361.0, 361.0, 362.0, 363.0, 362.0, 361.0, 361.0, 361.0, 361.0, 362.0, 362.0, 362.0],
      "WindowWidth": [772.0, 772.0, 771.0, 770.0, 772.0, 772.0, 771.0, 771.0, 772.0, 772.0, 772.0, 772.0, 772.0, 772.0, 772.0, 774.0, 774.0, 775.0, 776.0, 775.0, 774.0, 773.0, 774.0, 773.0, 773.0, 772.0, 773.0, 773.0, 773.0, 774.0, 773.0, 773.0, 774.0, 773.0, 775.0, 775.0, 776.0, 776.0, 775.0, 776.0, 776.0, 777.0, 775.0, 774.0, 776.0, 773.0, 773.0, 772.0, 773.0, 773.0, 774.0, 775.0, 777.0, 775.0, 775.0, 776.0, 775.0, 775.0, 774.0, 774.0, 776.0, 777.0, 779.0, 780.0, 776.0, 776.0, 772.0, 773.0, 772.0, 773.0, 772.0, 774.0, 774.0, 775.0, 775.0, 776.0, 775.0, 775.0, 776.0, 775.0, 774.0, 775.0, 776.0, 774.0, 774.0, 776.0, 772.0, 772.0, 770.0, 771.0, 772.0, 772.0, 772.0, 775.0, 774.0, 773.0, 772.0, 772.0, 772.0, 774.0, 774.0, 773.0, 775.0, 775.0, 776.0, 777.0, 778.0, 777.0, 777.0, 778.0, 778.0, 777.0, 777.0, 777.0, 778.0, 780.0, 781.0, 782.0, 781.0, 778.0, 777.0, 775.0, 775.0, 773.0, 772.0, 772.0, 772.0, 772.0, 775.0, 773.0, 773.0, 775.0, 775.0, 775.0, 775.0, 774.0, 776.0, 770.0, 771.0, 773.0, 774.0, 773.0, 771.0, 772.0, 774.0, 775.0, 777.0, 775.0, 774.0, 772.0, 772.0, 773.0, 773.0, 772.0, 773.0, 772.0, 774.0, 775.0, 774.0, 775.0, 775.0, 774.0, 775.0, 775.0, 776.0, 774.0, 775.0, 773.0, 772.0, 774.0, 775.0, 776.0, 776.0, 774.0, 774.0, 774.0, 775.0, 776.0, 777.0, 777.0, 775.0, 774.0, 774.0, 773.0, 773.0, 772.0, 772.0, 775.0, 776.0, 778.0, 776.0, 775.0, 773.0, 775.0, 773.0, 772.0, 772.0, 773.0, 774.0, 775.0, 774.0, 774.0, 774.0, 774.0, 774.0, 773.0, 774.0, 774.0, 777.0, 778.0, 778.0, 774.0, 775.0, 776.0, 778.0, 777.0, 774.0, 772.0, 773.0, 768.0, 768.0, 768.0, 769.0, 772.0, 772.0, 773.0, 774.0, 775.0, 773.0, 772.0, 772.0, 772.0, 773.0, 775.0, 775.0, 775.0]
    },
    "slices": {}
  }
}