{
  "AcquisitionMatrixPE": 96,
  "AcquisitionNumber": 1,
  "AcquisitionTime": "19:24:5.110000",
  "BandwidthPerPixelPhaseEncode": 18.939,
  "BaseResolution": 96,
  "BodyPartExamined": "BRAIN",
  "ConsistencyInfo": "N4_VE11C_LATEST_20160120",
  "ConversionSoftware": "dcm2niix",
  "ConversionSoftwareVersion": "v1.0.20171215 (OpenJPEG build) GCC6.3.0",
  "DerivedVendorReportedEchoSpacing": 0.000550011,
  "DeviceSerialNumber": "66112",
  "DwellTime": 2.2e-06,
  "EchoTime": 0.033,
  "EchoTrainLength": 96,
  "EffectiveEchoSpacing": 0.000550011,
  "FlipAngle": 59,
  "ImageOrientationPatientDICOM": [0.9997, 0.0199639, -0.0141837, -0.0193698, 0.998977, 0.0408542],
  "ImageType": [
    "ORIGINAL",
    "PRIMARY",
    "FMRI",
    "NONE",
    "ND",
    "NORM",
    "MOSAIC"
],
  "InPlanePhaseEncodingDirectionDICOM": "COL",
  "InstitutionAddress": "Maynard_3_Hanover_NH_US_03755",
  "InstitutionName": "Dartmouth_College_-_PBS",
  "InstitutionalDepartmentName": "Department",
  "MRAcquisitionType": "2D",
  "MagneticFieldStrength": 3,
  "Manufacturer": "Siemens",
  "ManufacturersModelName": "Prisma",
  "Modality": "MR",
  "MultibandAccelerationFactor": 4,
  "PartialFourier": 1,
  "PatientPosition": "HFS",
  "PercentPhaseFOV": 100,
  "PhaseEncodingDirection": "j-",
  "PhaseEncodingSteps": 96,
  "PhaseResolution": 1,
  "PixelBandwidth": 2365,
  "ProcedureStepDescription": "Gobbini_Matteo_1038_hyperface",
  "ProtocolName": "func_run-08_task-visualmemory",
  "PulseSequenceDetails": "%SiemensSeq%_ep2d_bold",
  "ReceiveCoilActiveElements": "HEA;HEP",
  "ReceiveCoilName": "Head_32",
  "ReconMatrixPE": 96,
  "RepetitionTime": 1,
  "SAR": 0.0546679,
  "ScanOptions": "FS",
  "ScanningSequence": "EP",
  "SequenceName": "_epfid2d1_96",
  "SequenceVariant": "SK",
  "SeriesDescription": "func_run-08_task-visualmemory",
  "SeriesNumber": 56,
  "ShimSetting": [4139, -7737, -7311, 767, -60, -34, 115, 98],
  "SliceThickness": 2.5,
  "SliceTiming": [0.735, 0, 0.49, 0.08, 0.57, 0.1625, 0.6525, 0.325, 0.815, 0.4075, 0.8975, 0.245, 0.735, 0, 0.49, 0.08, 0.57, 0.1625, 0.6525, 0.325, 0.815, 0.4075, 0.8975, 0.245, 0.735, 0, 0.49, 0.08, 0.57, 0.1625, 0.6525, 0.325, 0.815, 0.4075, 0.8975, 0.245, 0.735, 0, 0.49, 0.08, 0.57, 0.1625, 0.6525, 0.325, 0.815, 0.4075, 0.8975, 0.245],
  "SoftwareVersions": "syngo_MR_E11",
  "SpacingBetweenSlices": 2.5,
  "StationName": "AWP66112",
  "TotalReadoutTime": 0.0522511,
  "TxRefAmp": 248.358,
  "dcmmeta_affine": [
    [-2.4992501735687256, -0.04842447116971016, -0.03746207058429718, 123.6741714477539],
    [-0.04990965127944946, 2.497443437576294, 0.10141805559396744, -108.61404418945312],
    [-0.03545931726694107, -0.10213552415370941, 2.4976611137390137, -57.86848449707031],
    [0.0, 0.0, 0.0, 1.0]
],
  "dcmmeta_reorient_transform": [
    [0.0, -1.0, 0.0, 95.0],
    [1.0, 0.0, 0.0, 0.0],
    [0.0, 0.0, 1.0, 0.0],
    [0.0, 0.0, 0.0, 1.0]
],
  "dcmmeta_shape": [96, 96, 48, 288],
  "dcmmeta_slice_dim": 2,
  "dcmmeta_version": 0.6,
  "global": {
    "const": {
      "AccessionNumber": "A001355",
      "AcquisitionMatrix": [96, 0, 0, 96],
      "AngioFlag": "N",
      "BitsAllocated": 16,
      "BitsStored": 12,
      "BodyPartExamined": "BRAIN",
      "Columns": 672,
      "EchoNumbers": 1,
      "EchoTime": 33.0,
      "EchoTrainLength": 96,
      "FlipAngle": 59.0,
      "HighBit": 11,
      "ImageOrientationPatient": [0.99970008811736, 0.01996386038869, -0.0141837264682, -0.019369788615, 0.99897734946758, 0.0408542107958],
      "ImagePositionPatient": [-824.9116602135, -862.28075110974, -86.77410985036],
      "ImageType": [
        "ORIGINAL",
        "PRIMARY",
        "FMRI",
        "NONE",
        "ND",
        "NORM",
        "MOSAIC"
],
      "ImagedNucleus": "1H",
      "ImagingFrequency": 123.252292,
      "InPlanePhaseEncodingDirection": "COL",
      "MRAcquisitionType": "2D",
      "MagneticFieldStrength": 3.0,
      "Manufacturer": "SIEMENS",
      "ManufacturerModelName": "Prisma",
      "Modality": "MR",
      "NumberOfAverages": 1.0,
      "NumberOfPhaseEncodingSteps": 96,
      "PercentPhaseFieldOfView": 100.0,
      "PercentSampling": 100.0,
      "PerformedProcedureStepStartTime": "183646.702000",
      "PhotometricInterpretation": "MONOCHROME2",
      "PixelBandwidth": 2365.0,
      "PixelRepresentation": 0,
      "PixelSpacing": [2.5, 2.5],
      "PositionReferenceIndicator": "",
      "ProtocolName": "func_run-08_task-visualmemory",
      "RepetitionTime": 1000.0,
      "Rows": 672,
      "SAR": 0.05466793611754,
      "SamplesPerPixel": 1,
      "ScanOptions": "FS",
      "ScanningSequence": "EP",
      "SequenceName": "*epfid2d1_96",
      "SequenceVariant": "SK",
      "SeriesDescription": "func_run-08_task-visualmemory",
      "SeriesNumber": 56,
      "SeriesTime": "192406.616000",
      "SliceLocation": -64.073752871417,
      "SliceThickness": 2.5,
      "SmallestImagePixelValue": 0,
      "SoftwareVersions": "syngo MR E11",
      "SpacingBetweenSlices": 2.4999999224604,
      "SpecificCharacterSet": "ISO_IR 100",
      "StudyID": "3",
      "StudyTime": "183646.645000",
      "TransmitCoilName": "Body",
      "VariableFlipAngleFlag": "N",
      "WindowCenterWidthExplanation": "Algo1",
      "dBdt": 0.0},
    "slices": {}
  },
  "time": {
    "samples": {
      "AcquisitionNumber": [1, 2, 3, 4, 5, 6, 7, 8, 9, 10, 11, 12, 13, 14, 15, 16, 17, 18, 19, 20, 21, 22, 23, 24, 25, 26, 27, 28, 29, 30, 31, 32, 33, 34, 35, 36, 37, 38, 39, 40, 41, 42, 43, 44, 45, 46, 47, 48, 49, 50, 51, 52, 53, 54, 55, 56, 57, 58, 59, 60, 61, 62, 63, 64, 65, 66, 67, 68, 69, 70, 71, 72, 73, 74, 75, 76, 77, 78, 79, 80, 81, 82, 83, 84, 85, 86, 87, 88, 89, 90, 91, 92, 93, 94, 95, 96, 97, 98, 99, 100, 101, 102, 103, 104, 105, 106, 107, 108, 109, 110, 111, 112, 113, 114, 115, 116, 117, 118, 119, 120, 121, 122, 123, 124, 125, 126, 127, 128, 129, 130, 131, 132, 133, 134, 135, 136, 137, 138, 139, 140, 141, 142, 143, 144, 145, 146, 147, 148, 149, 150, 151, 152, 153, 154, 155, 156, 157, 158, 159, 160, 161, 162, 163, 164, 165, 166, 167, 168, 169, 170, 171, 172, 173, 174, 175, 176, 177, 178, 179, 180, 181, 182, 183, 184, 185, 186, 187, 188, 189, 190, 191, 192, 193, 194, 195, 196, 197, 198, 199, 200, 201, 202, 203, 204, 205, 206, 207, 208, 209, 210, 211, 212, 213, 214, 215, 216, 217, 218, 219, 220, 221, 222, 223, 224, 225, 226, 227, 228, 229, 230, 231, 232, 233, 234, 235, 236, 237, 238, 239, 240, 241, 242, 243, 244, 245, 246, 247, 248, 249, 250, 251, 252, 253, 254, 255, 256, 257, 258, 259, 260, 261, 262, 263, 264, 265, 266, 267, 268, 269, 270, 271, 272, 273, 274, 275, 276, 277, 278, 279, 280, 281, 282, 283, 284, 285, 286, 287, 288],
      "AcquisitionTime": ["192405.110000", "192406.110000", "192407.110000", "192408.110000", "192409.110000", "192410.110000", "192411.110000", "192412.110000", "192413.110000", "192414.110000", "192415.110000", "192416.110000", "192417.110000", "192418.110000", "192419.110000", "192420.110000", "192421.110000", "192422.110000", "192423.110000", "192424.110000", "192425.110000", "192426.110000", "192427.110000", "192428.110000", "192429.110000", "192430.110000", "192431.110000", "192432.110000", "192433.110000", "192434.110000", "192435.110000", "192436.110000", "192437.110000", "192438.110000", "192439.110000", "192440.110000", "192441.110000", "192442.110000", "192443.110000", "192444.110000", "192445.110000", "192446.110000", "192447.110000", "192448.110000", "192449.110000", "192450.110000", "192451.110000", "192452.110000", "192453.110000", "192454.110000", "192455.110000", "192456.110000", "192457.110000", "192458.110000", "192459.110000", "192500.110000", "192501.110000", "192502.110000", "192503.110000", "192504.110000", "192505.110000", "192506.110000", "192507.110000", "192508.110000", "192509.110000", "192510.110000", "192511.110000", "192512.110000", "192513.110000", "192514.110000", "192515.110000", "192516.110000", "192517.110000", "192518.110000", "192519.110000", "192520.110000", "192521.110000", "192522.110000", "192523.110000", "192524.110000", "192525.110000", "192526.110000", "192527.110000", "192528.110000", "192529.110000", "192530.110000", "192531.110000", "192532.110000", "192533.110000", "192534.110000", "192535.110000", "192536.110000", "192537.110000", "192538.110000", "192539.110000", "192540.110000", "192541.110000", "192542.110000", "192543.110000", "192544.110000", "192545.110000", "192546.110000", "192547.110000", "192548.110000", "192549.110000", "192550.110000", "192551.110000", "192552.110000", "192553.110000", "192554.110000", "192555.110000", "192556.110000", "192557.110000", "192558.110000", "192559.110000", "192600.110000", "192601.110000", "192602.110000", "192603.110000", "192604.110000", "192605.110000", "192606.110000", "192607.110000", "192608.110000", "192609.110000", "192610.110000", "192611.110000", "192612.110000", "192613.110000", "192614.110000", "192615.110000", "192616.110000", "192617.110000", "192618.110000", "192619.110000", "192620.110000", "192621.110000", "192622.110000", "192623.110000", "192624.110000", "192625.110000", "192626.110000", "192627.110000", "192628.110000", "192629.110000", "192630.110000", "192631.110000", "192632.110000", "192633.110000", "192634.110000", "192635.110000", "192636.110000", "192637.110000", "192638.110000", "192639.110000", "192640.110000", "192641.110000", "192642.110000", "192643.110000", "192644.110000", "192645.110000", "192646.110000", "192647.110000", "192648.110000", "192649.110000", "192650.110000", "192651.110000", "192652.110000", "192653.110000", "192654.110000", "192655.110000", "192656.110000", "192657.110000", "192658.110000", "192659.110000", "192700.110000", "192701.110000", "192702.110000", "192703.110000", "192704.110000", "192705.110000", "192706.110000", "192707.110000", "192708.110000", "192709.110000", "192710.110000", "192711.110000", "192712.110000", "192713.110000", "192714.110000", "192715.110000", "192716.110000", "192717.110000", "192718.110000", "192719.110000", "192720.110000", "192721.110000", "192722.110000", "192723.110000", "192724.110000", "192725.110000", "192726.110000", "192727.110000", "192728.110000", "192729.110000", "192730.110000", "192731.110000", "192732.110000", "192733.110000", "192734.110000", "192735.110000", "192736.110000", "192737.110000", "192738.110000", "192739.110000", "192740.110000", "192741.110000", "192742.110000", "192743.110000", "192744.110000", "192745.110000", "192746.110000", "192747.110000", "192748.110000", "192749.110000", "192750.110000", "192751.110000", "192752.110000", "192753.110000", "192754.110000", "192755.110000", "192756.110000", "192757.110000", "192758.110000", "192759.110000", "192800.110000", "192801.110000", "192802.110000", "192803.110000", "192804.110000", "192805.110000", "192806.110000", "192807.110000", "192808.110000", "192809.110000", "192810.110000", "192811.110000", "192812.110000", "192813.110000", "192814.110000", "192815.110000", "192816.110000", "192817.110000", "192818.110000", "192819.110000", "192820.110000", "192821.110000", "192822.110000", "192823.110000", "192824.110000", "192825.110000", "192826.110000", "192827.110000", "192828.110000", "192829.110000", "192830.110000", "192831.110000", "192832.110000", "192833.110000", "192834.110000", "192835.110000", "192836.110000", "192837.110000", "192838.110000", "192839.110000", "192840.110000", "192841.110000", "192842.110000", "192843.110000", "192844.110000", "192845.110000", "192846.110000", "192847.110000", "192848.110000", "192849.110000", "192850.110000", "192851.110000", "192852.110000"],
      "ContentTime": ["192406.620000", "192407.472000", "192408.477000", "192409.462000", "192410.468000", "192411.478000", "192412.458000", "192413.470000", "192414.482000", "192415.441000", "192416.500000", "192417.469000", "192418.471000", "192419.469000", "192420.470000", "192421.520000", "192422.492000", "192423.486000", "192424.478000", "192425.487000", "192426.466000", "192427.458000", "192428.468000", "192429.464000", "192430.472000", "192431.497000", "192432.495000", "192433.483000", "192434.487000", "192435.535000", "192436.518000", "192437.494000", "192438.460000", "192439.482000", "192440.451000", "192441.475000", "192442.474000", "192443.468000", "192444.485000", "192445.466000", "192446.463000", "192447.494000", "192448.465000", "192449.495000", "192450.491000", "192451.504000", "192452.479000", "192453.464000", "192454.479000", "192455.459000", "192456.527000", "192457.452000", "192458.460000", "192459.461000", "192500.483000", "192501.465000", "192502.468000", "192503.466000", "192504.527000", "192505.476000", "192506.472000", "192507.482000", "192508.503000", "192509.459000", "192510.445000", "192511.457000", "192512.472000", "192513.463000", "192514.452000", "192515.481000", "192516.473000", "192517.443000", "192518.490000", "192519.486000", "192520.474000", "192521.511000", "192522.465000", "192523.493000", "192524.477000", "192525.487000", "192526.458000", "192527.469000", "192528.464000", "192529.465000", "192530.494000", "192531.458000", "192532.444000", "192533.473000", "192534.456000", "192535.447000", "192536.464000", "192537.485000", "192538.448000", "192539.500000", "192540.467000", "192541.461000", "192542.474000", "192543.457000", "192544.480000", "192545.462000", "192546.486000", "192547.444000", "192548.556000", "192549.513000", "192550.476000", "192551.482000", "192552.486000", "192553.461000", "192554.485000", "192555.464000", "192556.547000", "192557.471000", "192558.477000", "192559.479000", "192600.469000", "192601.470000", "192602.503000", "192603.476000", "192604.479000", "192605.482000", "192606.474000", "192607.502000", "192608.473000", "192609.457000", "192610.464000", "192611.458000", "192612.477000", "192613.477000", "192614.478000", "192615.467000", "192616.461000", "192617.453000", "192618.462000", "192619.476000", "192620.476000", "192621.481000", "192622.493000", "192623.481000", "192624.479000", "192625.458000", "192626.481000", "192627.450000", "192628.474000", "192629.453000", "192630.457000", "192631.468000", "192632.472000", "192633.490000", "192634.474000", "192635.479000", "192636.468000", "192637.471000", "192638.473000", "192639.437000", "192640.479000", "192641.489000", "192642.465000", "192643.463000", "192644.460000", "192645.487000", "192646.469000", "192647.457000", "192648.445000", "192649.475000", "192650.537000", "192651.486000", "192652.462000", "192653.466000", "192654.485000", "192655.457000", "192656.444000", "192657.468000", "192658.454000", "192659.454000", "192700.449000", "192701.486000", "192702.462000", "192703.482000", "192704.468000", "192705.472000", "192706.466000", "192707.463000", "192708.491000", "192709.456000", "192710.472000", "192711.490000", "192712.432000", "192713.465000", "192714.478000", "192715.476000", "192716.496000", "192717.481000", "192718.486000", "192719.511000", "192720.568000", "192721.452000", "192722.441000", "192723.471000", "192724.469000", "192725.475000", "192726.482000", "192727.468000", "192728.486000", "192729.487000", "192730.453000", "192731.452000", "192732.461000", "192733.463000", "192734.464000", "192735.474000", "192736.451000", "192737.443000", "192738.469000", "192739.510000", "192740.483000", "192741.472000", "192742.479000", "192743.490000", "192744.517000", "192745.453000", "192746.492000", "192747.469000", "192748.482000", "192749.469000", "192750.459000", "192751.470000", "192752.463000", "192753.481000", "192754.487000", "192755.466000", "192756.488000", "192757.492000", "192758.445000", "192759.474000", "192800.481000", "192801.463000", "192802.445000", "192803.485000", "192804.544000", "192805.468000", "192806.480000", "192807.457000", "192808.488000", "192809.501000", "192810.516000", "192811.478000", "192812.460000", "192813.468000", "192814.472000", "192815.474000", "192816.480000", "192817.457000", "192818.443000", "192819.460000", "192820.435000", "192821.487000", "192822.474000", "192823.474000", "192824.461000", "192825.483000", "192826.471000", "192827.445000", "192828.457000", "192829.461000", "192830.522000", "192831.474000", "192832.430000", "192833.490000", "192834.492000", "192835.463000", "192836.497000", "192837.460000", "192838.474000", "192839.462000", "192840.471000", "192841.468000", "192842.483000", "192843.461000", "192844.543000", "192845.473000", "192846.460000", "192847.468000", "192848.451000", "192849.443000", "192850.459000", "192851.438000", "192852.437000", "192853.505000"],
      "InstanceCreationTime": ["192406.620000", "192407.472000", "192408.477000", "192409.462000", "192410.468000", "192411.478000", "192412.458000", "192413.470000", "192414.482000", "192415.441000", "192416.500000", "192417.469000", "192418.471000", "192419.469000", "192420.470000", "192421.520000", "192422.492000", "192423.486000", "192424.478000", "192425.487000", "192426.466000", "192427.458000", "192428.468000", "192429.464000", "192430.472000", "192431.497000", "192432.495000", "192433.483000", "192434.487000", "192435.535000", "192436.518000", "192437.494000", "192438.460000", "192439.482000", "192440.451000", "192441.475000", "192442.474000", "192443.468000", "192444.485000", "192445.466000", "192446.463000", "192447.494000", "192448.465000", "192449.495000", "192450.491000", "192451.504000", "192452.479000", "192453.464000", "192454.479000", "192455.459000", "192456.527000", "192457.452000", "192458.460000", "192459.461000", "192500.483000", "192501.465000", "192502.468000", "192503.466000", "192504.527000", "192505.476000", "192506.472000", "192507.482000", "192508.503000", "192509.459000", "192510.445000", "192511.457000", "192512.472000", "192513.463000", "192514.452000", "192515.481000", "192516.473000", "192517.443000", "192518.490000", "192519.486000", "192520.474000", "192521.511000", "192522.465000", "192523.493000", "192524.477000", "192525.487000", "192526.458000", "192527.469000", "192528.464000", "192529.465000", "192530.494000", "192531.458000", "192532.444000", "192533.473000", "192534.456000", "192535.447000", "192536.464000", "192537.485000", "192538.448000", "192539.500000", "192540.467000", "192541.461000", "192542.474000", "192543.457000", "192544.480000", "192545.462000", "192546.486000", "192547.444000", "192548.556000", "192549.513000", "192550.476000", "192551.482000", "192552.486000", "192553.461000", "192554.485000", "192555.464000", "192556.547000", "192557.471000", "192558.477000", "192559.479000", "192600.469000", "192601.470000", "192602.503000", "192603.476000", "192604.479000", "192605.482000", "192606.474000", "192607.502000", "192608.473000", "192609.457000", "192610.464000", "192611.458000", "192612.477000", "192613.477000", "192614.478000", "192615.467000", "192616.461000", "192617.453000", "192618.462000", "192619.476000", "192620.476000", "192621.481000", "192622.493000", "192623.481000", "192624.479000", "192625.458000", "192626.481000", "192627.450000", "192628.474000", "192629.453000", "192630.457000", "192631.468000", "192632.472000", "192633.490000", "192634.474000", "192635.479000", "192636.468000", "192637.471000", "192638.473000", "192639.437000", "192640.479000", "192641.489000", "192642.465000", "192643.463000", "192644.460000", "192645.487000", "192646.469000", "192647.457000", "192648.445000", "192649.475000", "192650.537000", "192651.486000", "192652.462000", "192653.466000", "192654.485000", "192655.457000", "192656.444000", "192657.468000", "192658.454000", "192659.454000", "192700.449000", "192701.486000", "192702.462000", "192703.482000", "192704.468000", "192705.472000", "192706.466000", "192707.463000", "192708.491000", "192709.456000", "192710.472000", "192711.490000", "192712.432000", "192713.465000", "192714.478000", "192715.476000", "192716.496000", "192717.481000", "192718.486000", "192719.511000", "192720.568000", "192721.452000", "192722.441000", "192723.471000", "192724.469000", "192725.475000", "192726.482000", "192727.468000", "192728.486000", "192729.487000", "192730.453000", "192731.452000", "192732.461000", "192733.463000", "192734.464000", "192735.474000", "192736.451000", "192737.443000", "192738.469000", "192739.510000", "192740.483000", "192741.472000", "192742.479000", "192743.490000", "192744.517000", "192745.453000", "192746.492000", "192747.469000", "192748.482000", "192749.469000", "192750.459000", "192751.470000", "192752.463000", "192753.481000", "192754.487000", "192755.466000", "192756.488000", "192757.492000", "192758.445000", "192759.474000", "192800.481000", "192801.463000", "192802.445000", "192803.485000", "192804.544000", "192805.468000", "192806.480000", "192807.457000", "192808.488000", "192809.501000", "192810.516000", "192811.478000", "192812.460000", "192813.468000", "192814.472000", "192815.474000", "192816.480000", "192817.457000", "192818.443000", "192819.460000", "192820.435000", "192821.487000", "192822.474000", "192823.474000", "192824.461000", "192825.483000", "192826.471000", "192827.445000", "192828.457000", "192829.461000", "192830.522000", "192831.474000", "192832.430000", "192833.490000", "192834.492000", "192835.463000", "192836.497000", "192837.460000", "192838.474000", "192839.462000", "192840.471000", "192841.468000", "192842.483000", "192843.461000", "192844.543000", "192845.473000", "192846.460000", "192847.468000", "192848.451000", "192849.443000", "192850.459000", "192851.438000", "192852.437000", "192853.505000"],
      "InstanceNumber": [1, 2, 3, 4, 5, 6, 7, 8, 9, 10, 11, 12, 13, 14, 15, 16, 17, 18, 19, 20, 21, 22, 23, 24, 25, 26, 27, 28, 29, 30, 31, 32, 33, 34, 35, 36, 37, 38, 39, 40, 41, 42, 43, 44, 45, 46, 47, 48, 49, 50, 51, 52, 53, 54, 55, 56, 57, 58, 59, 60, 61, 62, 63, 64, 65, 66, 67, 68, 69, 70, 71, 72, 73, 74, 75, 76, 77, 78, 79, 80, 81, 82, 83, 84, 85, 86, 87, 88, 89, 90, 91, 92, 93, 94, 95, 96, 97, 98, 99, 100, 101, 102, 103, 104, 105, 106, 107, 108, 109, 110, 111, 112, 113, 114, 115, 116, 117, 118, 119, 120, 121, 122, 123, 124, 125, 126, 127, 128, 129, 130, 131, 132, 133, 134, 135, 136, 137, 138, 139, 140, 141, 142, 143, 144, 145, 146, 147, 148, 149, 150, 151, 152, 153, 154, 155, 156, 157, 158, 159, 160, 161, 162, 163, 164, 165, 166, 167, 168, 169, 170, 171, 172, 173, 174, 175, 176, 177, 178, 179, 180, 181, 182, 183, 184, 185, 186, 187, 188, 189, 190, 191, 192, 193, 194, 195, 196, 197, 198, 199, 200, 201, 202, 203, 204, 205, 206, 207, 208, 209, 210, 211, 212, 213, 214, 215, 216, 217, 218, 219, 220, 221, 222, 223, 224, 225, 226, 227, 228, 229, 230, 231, 232, 233, 234, 235, 236, 237, 238, 239, 240, 241, 242, 243, 244, 245, 246, 247, 248, 249, 250, 251, 252, 253, 254, 255, 256, 257, 258, 259, 260, 261, 262, 263, 264, 265, 266, 267, 268, 269, 270, 271, 272, 273, 274, 275, 276, 277, 278, 279, 280, 281, 282, 283, 284, 285, 286, 287, 288],
      "LargestImagePixelValue": [765, 1042, 936, 958, 823, 864, 715, 692, 717, 838, 764, 736, 739, 818, 811, 775, 800, 754, 757, 765, 839, 773, 688, 741, 784, 716, 784, 673, 750, 769, 746, 705, 769, 738, 716, 706, 775, 794, 741, 710, 701, 709, 752, 689, 715, 683, 725, 723, 687, 688, 760, 741, 826, 790, 715, 746, 791, 782, 828, 764, 700, 745, 725, 677, 791, 721, 706, 700, 707, 807, 719, 719, 745, 800, 706, 699, 825, 692, 756, 721, 797, 983, 812, 910, 1066, 980, 817, 817, 836, 775, 738, 727, 721, 716, 781, 965, 1168, 774, 720, 823, 793, 715, 703, 815, 885, 814, 725, 848, 717, 872, 737, 684, 749, 841, 720, 735, 1281, 769, 710, 790, 698, 690, 702, 747, 739, 736, 694, 682, 695, 762, 711, 697, 711, 688, 663, 707, 714, 666, 690, 722, 704, 720, 737, 779, 724, 745, 1179, 681, 706, 1005, 694, 679, 731, 708, 709, 687, 713, 722, 704, 698, 664, 690, 675, 700, 712, 712, 771, 682, 718, 743, 795, 838, 755, 822, 752, 767, 773, 736, 807, 845, 692, 717, 820, 763, 757, 721, 749, 854, 725, 776, 733, 725, 754, 817, 745, 690, 755, 832, 754, 757, 707, 710, 735, 749, 685, 680, 704, 701, 777, 690, 691, 704, 700, 700, 730, 781, 770, 859, 902, 810, 870, 907, 870, 845, 787, 774, 765, 751, 832, 762, 793, 829, 794, 840, 1078, 1085, 834, 728, 732, 691, 711, 1043, 781, 750, 790, 823, 730, 881, 772, 660, 714, 838, 736, 768, 865, 789, 723, 837, 729, 718, 710, 908, 731, 696, 689, 696, 803, 747, 704, 793, 773, 803, 756, 672, 810, 756, 743, 879, 702, 765, 758, 745, 913, 726, 708, 713, 751, 769],
      "WindowCenter": [363.0, 364.0, 363.0, 363.0, 361.0, 361.0, 360.0, 360.0, 361.0, 362.0, 361.0, 361.0, 361.0, 362.0, 362.0, 362.0, 362.0, 362.0, 361.0, 361.0, 362.0, 362.0, 361.0, 362.0, 362.0, 362.0, 362.0, 361.0, 363.0, 362.0, 362.0, 362.0, 362.0, 361.0, 361.0, 361.0, 361.0, 362.0, 362.0, 362.0, 362.0, 361.0, 362.0, 361.0, 362.0, 362.0, 362.0, 362.0, 362.0, 362.0, 362.0, 362.0, 364.0, 364.0, 362.0, 362.0, 363.0, 362.0, 363.0, 363.0, 362.0, 362.0, 362.0, 362.0, 363.0, 362.0, 362.0, 362.0, 362.0, 364.0, 363.0, 363.0, 363.0, 364.0, 363.0, 364.0, 365.0, 364.0, 364.0, 363.0, 363.0, 365.0, 363.0, 364.0, 364.0, 364.0, 362.0, 362.0, 363.0, 362.0, 362.0, 363.0, 363.0, 363.0, 364.0, 365.0, 365.0, 362.0, 361.0, 362.0, 362.0, 362.0, 362.0, 363.0, 363.0, 363.0, 361.0, 362.0, 361.0, 362.0, 361.0, 361.0, 362.0, 362.0, 361.0, 361.0, 365.0, 360.0, 360.0, 362.0, 362.0, 362.0, 362.0, 362.0, 362.0, 362.0, 362.0, 362.0, 362.0, 363.0, 362.0, 362.0, 362.0, 362.0, 361.0, 362.0, 362.0, 362.0, 363.0, 363.0, 363.0, 363.0, 364.0, 365.0, 363.0, 362.0, 365.0, 360.0, 360.0, 362.0, 360.0, 359.0, 360.0, 359.0, 360.0, 360.0, 361.0, 362.0, 361.0, 361.0, 360.0, 361.0, 361.0, 362.0, 362.0, 363.0, 363.0, 362.0, 362.0, 362.0, 364.0, 364.0, 363.0, 363.0, 362.0, 362.0, 362.0, 362.0, 363.0, 363.0, 361.0, 361.0, 362.0, 361.0, 362.0, 362.0, 362.0, 364.0, 363.0, 363.0, 362.0, 362.0, 361.0, 362.0, 362.0, 362.0, 363.0, 364.0, 363.0, 362.0, 362.0, 363.0, 363.0, 363.0, 362.0, 362.0, 362.0, 362.0, 363.0, 362.0, 363.0, 362.0, 362.0, 363.0, 364.0, 364.0, 365.0, 365.0, 366.0, 364.0, 365.0, 365.0, 365.0, 364.0, 363.0, 364.0, 363.0, 364.0, 364.0, 364.0, 364.0, 365.0, 364.0, 364.0, 365.0, 364.0, 363.0, 361.0, 361.0, 361.0, 362.0, 364.0, 362.0, 362.0, 361.0, 361.0, 361.0, 362.0, 361.0, 360.0, 361.0, 362.0, 361.0, 361.0, 363.0, 362.0, 362.0, 361.0, 360.0, 361.0, 362.0, 365.0, 362.0, 361.0, 362.0, 362.0, 363.0, 362.0, 362.0, 363.0, 363.0, 363.0, 362.0, 362.0, 363.0, 362.0, 362.0, 363.0, 362.0, 363.0, 363.0, 362.0, 363.0, 360.0, 361.0, 362.0, 364.0, 363.0],
      "WindowWidth": [778.0, 778.0, 775.0, 775.0, 773.0, 772.0, 771.0, 771.0, 772.0, 774.0, 773.0, 773.0, 773.0, 774.0, 774.0, 775.0, 775.0, 774.0, 774.0, 773.0, 774.0, 774.0, 773.0, 774.0, 774.0, 775.0, 775.0, 773.0, 776.0, 775.0, 775.0, 774.0, 774.0, 774.0, 773.0, 772.0, 773.0, 774.0, 774.0, 774.0, 774.0, 774.0, 775.0, 773.0, 774.0, 774.0, 774.0, 774.0, 774.0, 774.0, 775.0, 775.0, 777.0, 777.0, 776.0, 775.0, 776.0, 775.0, 776.0, 776.0, 775.0, 776.0, 775.0, 775.0, 776.0, 776.0, 775.0, 775.0, 775.0, 777.0, 777.0, 777.0, 777.0, 779.0, 777.0, 778.0, 780.0, 779.0, 778.0, 776.0, 776.0, 778.0, 776.0, 777.0, 778.0, 777.0, 775.0, 774.0, 775.0, 774.0, 775.0, 776.0, 777.0, 777.0, 778.0, 779.0, 779.0, 775.0, 774.0, 774.0, 774.0, 775.0, 776.0, 776.0, 777.0, 775.0, 773.0, 775.0, 773.0, 775.0, 774.0, 773.0, 774.0, 774.0, 773.0, 772.0, 778.0, 771.0, 771.0, 774.0, 775.0, 774.0, 775.0, 775.0, 775.0, 775.0, 775.0, 775.0, 774.0, 776.0, 775.0, 775.0, 774.0, 774.0, 773.0, 774.0, 775.0, 775.0, 776.0, 776.0, 776.0, 777.0, 778.0, 780.0, 777.0, 775.0, 779.0, 772.0, 771.0, 774.0, 771.0, 770.0, 770.0, 770.0, 771.0, 771.0, 774.0, 774.0, 774.0, 773.0, 772.0, 772.0, 772.0, 774.0, 776.0, 777.0, 776.0, 775.0, 775.0, 775.0, 777.0, 777.0, 776.0, 777.0, 775.0, 775.0, 775.0, 775.0, 775.0, 776.0, 773.0, 773.0, 774.0, 774.0, 775.0, 775.0, 775.0, 778.0, 777.0, 776.0, 775.0, 774.0, 773.0, 774.0, 775.0, 774.0, 776.0, 777.0, 776.0, 775.0, 775.0, 777.0, 777.0, 777.0, 775.0, 775.0, 774.0, 774.0, 776.0, 775.0, 776.0, 775.0, 776.0, 777.0, 778.0, 779.0, 779.0, 780.0, 781.0, 779.0, 779.0, 779.0, 779.0, 778.0, 776.0, 777.0, 776.0, 778.0, 778.0, 778.0, 779.0, 780.0, 779.0, 778.0, 779.0, 778.0, 776.0, 772.0, 772.0, 773.0, 774.0, 778.0, 775.0, 774.0, 773.0, 772.0, 772.0, 773.0, 773.0, 772.0, 773.0, 774.0, 773.0, 773.0, 775.0, 774.0, 774.0, 773.0, 770.0, 773.0, 775.0, 779.0, 774.0, 773.0, 774.0, 775.0, 776.0, 775.0, 774.0, 776.0, 776.0, 776.0, 775.0, 775.0, 776.0, 775.0, 775.0, 777.0, 775.0, 776.0, 776.0, 775.0, 776.0, 771.0, 772.0, 775.0, 777.0, 777.0]
    },
    "slices": {}
  }
}