{
  "AcquisitionMatrixPE": 96,
  "AcquisitionNumber": 1,
  "AcquisitionTime": "19:13:10.740000",
  "BandwidthPerPixelPhaseEncode": 18.939,
  "BaseResolution": 96,
  "BodyPartExamined": "BRAIN",
  "ConsistencyInfo": "N4_VE11C_LATEST_20160120",
  "ConversionSoftware": "dcm2niix",
  "ConversionSoftwareVersion": "v1.0.20171215 (OpenJPEG build) GCC6.3.0",
  "DerivedVendorReportedEchoSpacing": 0.000550011,
  "DeviceSerialNumber": "66112",
  "DwellTime": 2.2e-06,
  "EchoTime": 0.033,
  "EchoTrainLength": 96,
  "EffectiveEchoSpacing": 0.000550011,
  "FlipAngle": 59,
  "ImageOrientationPatientDICOM": [0.9997, 0.0199639, -0.0141837, -0.0193698, 0.998977, 0.0408542],
  "ImageType": [
    "ORIGINAL",
    "PRIMARY",
    "FMRI",
    "NONE",
    "ND",
    "NORM",
    "MOSAIC"
],
  "InPlanePhaseEncodingDirectionDICOM": "COL",
  "InstitutionAddress": "Maynard_3_Hanover_NH_US_03755",
  "InstitutionName": "Dartmouth_College_-_PBS",
  "InstitutionalDepartmentName": "Department",
  "MRAcquisitionType": "2D",
  "MagneticFieldStrength": 3,
  "Manufacturer": "Siemens",
  "ManufacturersModelName": "Prisma",
  "Modality": "MR",
  "MultibandAccelerationFactor": 4,
  "PartialFourier": 1,
  "PatientPosition": "HFS",
  "PercentPhaseFOV": 100,
  "PhaseEncodingDirection": "j-",
  "PhaseEncodingSteps": 96,
  "PhaseResolution": 1,
  "PixelBandwidth": 2365,
  "ProcedureStepDescription": "Gobbini_Matteo_1038_hyperface",
  "ProtocolName": "func_run-06_task-visualmemory",
  "PulseSequenceDetails": "%SiemensSeq%_ep2d_bold",
  "ReceiveCoilActiveElements": "HEA;HEP",
  "ReceiveCoilName": "Head_32",
  "ReconMatrixPE": 96,
  "RepetitionTime": 1,
  "SAR": 0.0546679,
  "ScanOptions": "FS",
  "ScanningSequence": "EP",
  "SequenceName": "_epfid2d1_96",
  "SequenceVariant": "SK",
  "SeriesDescription": "func_run-06_task-visualmemory",
  "SeriesNumber": 42,
  "ShimSetting": [4139, -7737, -7311, 767, -60, -34, 115, 98],
  "SliceThickness": 2.5,
  "SliceTiming": [0.735, 0, 0.49, 0.0825, 0.5725, 0.1625, 0.6525, 0.3275, 0.8175, 0.4075, 0.8975, 0.245, 0.735, 0, 0.49, 0.0825, 0.5725, 0.1625, 0.6525, 0.3275, 0.8175, 0.4075, 0.8975, 0.245, 0.735, 0, 0.49, 0.0825, 0.5725, 0.1625, 0.6525, 0.3275, 0.8175, 0.4075, 0.8975, 0.245, 0.735, 0, 0.49, 0.0825, 0.5725, 0.1625, 0.6525, 0.3275, 0.8175, 0.4075, 0.8975, 0.245],
  "SoftwareVersions": "syngo_MR_E11",
  "SpacingBetweenSlices": 2.5,
  "StationName": "AWP66112",
  "TotalReadoutTime": 0.0522511,
  "TxRefAmp": 248.358,
  "dcmmeta_affine": [
    [-2.4992501735687256, -0.04842447116971016, -0.03746207058429718, 123.6741714477539],
    [-0.04990965127944946, 2.497443437576294, 0.10141805559396744, -108.61404418945312],
    [-0.03545931726694107, -0.10213552415370941, 2.4976611137390137, -57.86848449707031],
    [0.0, 0.0, 0.0, 1.0]
],
  "dcmmeta_reorient_transform": [
    [0.0, -1.0, 0.0, 95.0],
    [1.0, 0.0, 0.0, 0.0],
    [0.0, 0.0, 1.0, 0.0],
    [0.0, 0.0, 0.0, 1.0]
],
  "dcmmeta_shape": [96, 96, 48, 288],
  "dcmmeta_slice_dim": 2,
  "dcmmeta_version": 0.6,
  "global": {
    "const": {
      "AccessionNumber": "A001355",
      "AcquisitionMatrix": [96, 0, 0, 96],
      "AngioFlag": "N",
      "BitsAllocated": 16,
      "BitsStored": 12,
      "BodyPartExamined": "BRAIN",
      "Columns": 672,
      "EchoNumbers": 1,
      "EchoTime": 33.0,
      "EchoTrainLength": 96,
      "FlipAngle": 59.0,
      "HighBit": 11,
      "ImageOrientationPatient": [0.99970008811736, 0.01996386038869, -0.0141837264682, -0.019369788615, 0.99897734946758, 0.0408542107958],
      "ImagePositionPatient": [-824.9116602135, -862.28075110974, -86.77410985036],
      "ImageType": [
        "ORIGINAL",
        "PRIMARY",
        "FMRI",
        "NONE",
        "ND",
        "NORM",
        "MOSAIC"
],
      "ImagedNucleus": "1H",
      "ImagingFrequency": 123.252288,
      "InPlanePhaseEncodingDirection": "COL",
      "MRAcquisitionType": "2D",
      "MagneticFieldStrength": 3.0,
      "Manufacturer": "SIEMENS",
      "ManufacturerModelName": "Prisma",
      "Modality": "MR",
      "NumberOfAverages": 1.0,
      "NumberOfPhaseEncodingSteps": 96,
      "PercentPhaseFieldOfView": 100.0,
      "PercentSampling": 100.0,
      "PerformedProcedureStepStartTime": "183646.702000",
      "PhotometricInterpretation": "MONOCHROME2",
      "PixelBandwidth": 2365.0,
      "PixelRepresentation": 0,
      "PixelSpacing": [2.5, 2.5],
      "PositionReferenceIndicator": "",
      "ProtocolName": "func_run-06_task-visualmemory",
      "RepetitionTime": 1000.0,
      "Rows": 672,
      "SAR": 0.05466793611754,
      "SamplesPerPixel": 1,
      "ScanOptions": "FS",
      "ScanningSequence": "EP",
      "SequenceName": "*epfid2d1_96",
      "SequenceVariant": "SK",
      "SeriesDescription": "func_run-06_task-visualmemory",
      "SeriesNumber": 42,
      "SeriesTime": "191312.557000",
      "SliceLocation": -64.073752871417,
      "SliceThickness": 2.5,
      "SmallestImagePixelValue": 0,
      "SoftwareVersions": "syngo MR E11",
      "SpacingBetweenSlices": 2.4999999224604,
      "SpecificCharacterSet": "ISO_IR 100",
      "StudyID": "3",
      "StudyTime": "183646.645000",
      "TransmitCoilName": "Body",
      "VariableFlipAngleFlag": "N",
      "WindowCenterWidthExplanation": "Algo1",
      "dBdt": 0.0},
    "slices": {}
  },
  "time": {
    "samples": {
      "AcquisitionNumber": [1, 2, 3, 4, 5, 6, 7, 8, 9, 10, 11, 12, 13, 14, 15, 16, 17, 18, 19, 20, 21, 22, 23, 24, 25, 26, 27, 28, 29, 30, 31, 32, 33, 34, 35, 36, 37, 38, 39, 40, 41, 42, 43, 44, 45, 46, 47, 48, 49, 50, 51, 52, 53, 54, 55, 56, 57, 58, 59, 60, 61, 62, 63, 64, 65, 66, 67, 68, 69, 70, 71, 72, 73, 74, 75, 76, 77, 78, 79, 80, 81, 82, 83, 84, 85, 86, 87, 88, 89, 90, 91, 92, 93, 94, 95, 96, 97, 98, 99, 100, 101, 102, 103, 104, 105, 106, 107, 108, 109, 110, 111, 112, 113, 114, 115, 116, 117, 118, 119, 120, 121, 122, 123, 124, 125, 126, 127, 128, 129, 130, 131, 132, 133, 134, 135, 136, 137, 138, 139, 140, 141, 142, 143, 144, 145, 146, 147, 148, 149, 150, 151, 152, 153, 154, 155, 156, 157, 158, 159, 160, 161, 162, 163, 164, 165, 166, 167, 168, 169, 170, 171, 172, 173, 174, 175, 176, 177, 178, 179, 180, 181, 182, 183, 184, 185, 186, 187, 188, 189, 190, 191, 192, 193, 194, 195, 196, 197, 198, 199, 200, 201, 202, 203, 204, 205, 206, 207, 208, 209, 210, 211, 212, 213, 214, 215, 216, 217, 218, 219, 220, 221, 222, 223, 224, 225, 226, 227, 228, 229, 230, 231, 232, 233, 234, 235, 236, 237, 238, 239, 240, 241, 242, 243, 244, 245, 246, 247, 248, 249, 250, 251, 252, 253, 254, 255, 256, 257, 258, 259, 260, 261, 262, 263, 264, 265, 266, 267, 268, 269, 270, 271, 272, 273, 274, 275, 276, 277, 278, 279, 280, 281, 282, 283, 284, 285, 286, 287, 288],
      "AcquisitionTime": ["191310.740000", "191311.740000", "191312.740000", "191313.740000", "191314.740000", "191315.740000", "191316.740000", "191317.740000", "191318.740000", "191319.740000", "191320.740000", "191321.740000", "191322.740000", "191323.740000", "191324.740000", "191325.740000", "191326.740000", "191327.740000", "191328.740000", "191329.740000", "191330.740000", "191331.740000", "191332.740000", "191333.740000", "191334.740000", "191335.740000", "191336.740000", "191337.740000", "191338.740000", "191339.740000", "191340.740000", "191341.740000", "191342.740000", "191343.740000", "191344.740000", "191345.740000", "191346.740000", "191347.740000", "191348.740000", "191349.740000", "191350.740000", "191351.740000", "191352.740000", "191353.740000", "191354.740000", "191355.740000", "191356.740000", "191357.740000", "191358.740000", "191359.740000", "191400.740000", "191401.740000", "191402.740000", "191403.740000", "191404.740000", "191405.740000", "191406.740000", "191407.740000", "191408.740000", "191409.740000", "191410.740000", "191411.740000", "191412.740000", "191413.740000", "191414.740000", "191415.740000", "191416.740000", "191417.740000", "191418.740000", "191419.740000", "191420.740000", "191421.740000", "191422.740000", "191423.740000", "191424.740000", "191425.740000", "191426.740000", "191427.740000", "191428.740000", "191429.740000", "191430.740000", "191431.740000", "191432.740000", "191433.740000", "191434.740000", "191435.740000", "191436.740000", "191437.740000", "191438.740000", "191439.740000", "191440.740000", "191441.740000", "191442.740000", "191443.740000", "191444.740000", "191445.740000", "191446.740000", "191447.740000", "191448.740000", "191449.740000", "191450.740000", "191451.740000", "191452.740000", "191453.740000", "191454.740000", "191455.740000", "191456.740000", "191457.740000", "191458.740000", "191459.740000", "191500.740000", "191501.740000", "191502.740000", "191503.740000", "191504.740000", "191505.740000", "191506.740000", "191507.740000", "191508.740000", "191509.740000", "191510.740000", "191511.740000", "191512.740000", "191513.740000", "191514.740000", "191515.740000", "191516.740000", "191517.740000", "191518.740000", "191519.740000", "191520.740000", "191521.740000", "191522.740000", "191523.740000", "191524.740000", "191525.740000", "191526.740000", "191527.740000", "191528.740000", "191529.740000", "191530.740000", "191531.740000", "191532.740000", "191533.740000", "191534.740000", "191535.740000", "191536.740000", "191537.740000", "191538.740000", "191539.740000", "191540.740000", "191541.740000", "191542.740000", "191543.740000", "191544.740000", "191545.740000", "191546.740000", "191547.740000", "191548.740000", "191549.740000", "191550.740000", "191551.740000", "191552.740000", "191553.740000", "191554.740000", "191555.740000", "191556.740000", "191557.740000", "191558.740000", "191559.740000", "191600.740000", "191601.740000", "191602.740000", "191603.740000", "191604.740000", "191605.740000", "191606.740000", "191607.740000", "191608.740000", "191609.740000", "191610.740000", "191611.740000", "191612.740000", "191613.740000", "191614.740000", "191615.740000", "191616.740000", "191617.740000", "191618.740000", "191619.740000", "191620.740000", "191621.740000", "191622.740000", "191623.740000", "191624.740000", "191625.740000", "191626.740000", "191627.740000", "191628.740000", "191629.740000", "191630.740000", "191631.740000", "191632.740000", "191633.740000", "191634.740000", "191635.740000", "191636.740000", "191637.740000", "191638.740000", "191639.740000", "191640.740000", "191641.740000", "191642.740000", "191643.740000", "191644.740000", "191645.740000", "191646.740000", "191647.740000", "191648.740000", "191649.740000", "191650.740000", "191651.740000", "191652.740000", "191653.740000", "191654.740000", "191655.740000", "191656.740000", "191657.740000", "191658.740000", "191659.740000", "191700.740000", "191701.740000", "191702.740000", "191703.740000", "191704.740000", "191705.740000", "191706.740000", "191707.740000", "191708.740000", "191709.740000", "191710.740000", "191711.740000", "191712.740000", "191713.740000", "191714.740000", "191715.740000", "191716.740000", "191717.740000", "191718.740000", "191719.740000", "191720.740000", "191721.740000", "191722.740000", "191723.740000", "191724.740000", "191725.740000", "191726.740000", "191727.740000", "191728.740000", "191729.740000", "191730.740000", "191731.740000", "191732.740000", "191733.740000", "191734.740000", "191735.740000", "191736.740000", "191737.740000", "191738.740000", "191739.740000", "191740.740000", "191741.740000", "191742.740000", "191743.740000", "191744.740000", "191745.740000", "191746.740000", "191747.740000", "191748.740000", "191749.740000", "191750.740000", "191751.740000", "191752.740000", "191753.740000", "191754.740000", "191755.740000", "191756.740000", "191757.740000"],
      "ContentTime": ["191312.561000", "191313.342000", "191314.353000", "191315.309000", "191316.337000", "191317.354000", "191318.338000", "191319.345000", "191320.354000", "191321.324000", "191322.370000", "191323.328000", "191324.374000", "191325.326000", "191326.334000", "191327.377000", "191328.356000", "191329.333000", "191330.353000", "191331.351000", "191332.344000", "191333.398000", "191334.365000", "191335.337000", "191336.346000", "191337.332000", "191338.357000", "191339.351000", "191340.337000", "191341.364000", "191342.339000", "191343.350000", "191344.362000", "191345.356000", "191346.365000", "191347.341000", "191348.338000", "191349.343000", "191350.330000", "191351.353000", "191352.349000", "191353.341000", "191354.365000", "191355.346000", "191356.344000", "191357.346000", "191358.335000", "191359.346000", "191400.346000", "191401.332000", "191402.354000", "191403.314000", "191404.366000", "191405.338000", "191406.322000", "191407.347000", "191408.352000", "191409.379000", "191410.346000", "191411.334000", "191412.384000", "191413.358000", "191414.359000", "191415.353000", "191416.358000", "191417.347000", "191418.327000", "191419.336000", "191420.373000", "191421.406000", "191422.392000", "191423.355000", "191424.345000", "191425.341000", "191426.343000", "191427.344000", "191428.348000", "191429.374000", "191430.349000", "191431.363000", "191432.334000", "191433.352000", "191434.319000", "191435.349000", "191436.336000", "191437.350000", "191438.348000", "191439.333000", "191440.396000", "191441.343000", "191442.390000", "191443.377000", "191444.360000", "191445.391000", "191446.353000", "191447.375000", "191448.365000", "191449.340000", "191450.371000", "191451.349000", "191452.326000", "191453.385000", "191454.344000", "191455.351000", "191456.342000", "191457.365000", "191458.348000", "191459.343000", "191500.356000", "191501.322000", "191502.359000", "191503.351000", "191504.355000", "191505.351000", "191506.393000", "191507.365000", "191508.356000", "191509.373000", "191510.365000", "191511.371000", "191512.347000", "191513.383000", "191514.358000", "191515.366000", "191516.334000", "191517.345000", "191518.335000", "191519.350000", "191520.357000", "191521.342000", "191522.341000", "191523.357000", "191524.366000", "191525.347000", "191526.361000", "191527.375000", "191528.340000", "191529.346000", "191530.362000", "191531.382000", "191532.353000", "191533.342000", "191534.361000", "191535.349000", "191536.351000", "191537.351000", "191538.352000", "191539.354000", "191540.360000", "191541.335000", "191542.360000", "191543.334000", "191544.384000", "191545.405000", "191546.346000", "191547.350000", "191548.356000", "191549.359000", "191550.377000", "191551.352000", "191552.365000", "191553.367000", "191554.375000", "191555.375000", "191556.360000", "191557.370000", "191558.354000", "191559.343000", "191600.350000", "191601.369000", "191602.353000", "191603.369000", "191604.393000", "191605.375000", "191606.346000", "191607.345000", "191608.372000", "191609.354000", "191610.357000", "191611.374000", "191612.307000", "191613.366000", "191614.365000", "191615.343000", "191616.412000", "191617.365000", "191618.346000", "191619.378000", "191620.366000", "191621.339000", "191622.361000", "191623.371000", "191624.357000", "191625.355000", "191626.337000", "191627.342000", "191628.371000", "191629.332000", "191630.353000", "191631.341000", "191632.342000", "191633.350000", "191634.366000", "191635.325000", "191636.348000", "191637.345000", "191638.354000", "191639.336000", "191640.355000", "191641.391000", "191642.345000", "191643.353000", "191644.357000", "191645.364000", "191646.354000", "191647.337000", "191648.347000", "191649.352000", "191650.341000", "191651.341000", "191652.334000", "191653.376000", "191654.359000", "191655.340000", "191656.356000", "191657.351000", "191658.338000", "191659.349000", "191700.334000", "191701.326000", "191702.329000", "191703.348000", "191704.361000", "191705.359000", "191706.350000", "191707.323000", "191708.349000", "191709.338000", "191710.359000", "191711.361000", "191712.347000", "191713.341000", "191714.346000", "191715.347000", "191716.332000", "191717.334000", "191718.358000", "191719.364000", "191720.347000", "191721.361000", "191722.385000", "191723.368000", "191724.332000", "191725.353000", "191726.321000", "191727.332000", "191728.350000", "191729.350000", "191730.390000", "191731.364000", "191732.396000", "191733.395000", "191734.364000", "191735.375000", "191736.368000", "191737.344000", "191738.340000", "191739.386000", "191740.328000", "191741.358000", "191742.356000", "191743.348000", "191744.355000", "191745.387000", "191746.381000", "191747.360000", "191748.364000", "191749.375000", "191750.387000", "191751.392000", "191752.361000", "191753.352000", "191754.364000", "191755.362000", "191756.378000", "191757.342000", "191758.354000", "191759.351000"],
      "InstanceCreationTime": ["191312.561000", "191313.342000", "191314.353000", "191315.309000", "191316.337000", "191317.354000", "191318.338000", "191319.345000", "191320.354000", "191321.324000", "191322.370000", "191323.328000", "191324.374000", "191325.326000", "191326.334000", "191327.377000", "191328.356000", "191329.333000", "191330.353000", "191331.351000", "191332.344000", "191333.398000", "191334.365000", "191335.337000", "191336.346000", "191337.332000", "191338.357000", "191339.351000", "191340.337000", "191341.364000", "191342.339000", "191343.350000", "191344.362000", "191345.356000", "191346.365000", "191347.341000", "191348.338000", "191349.343000", "191350.330000", "191351.353000", "191352.349000", "191353.341000", "191354.365000", "191355.346000", "191356.344000", "191357.346000", "191358.335000", "191359.346000", "191400.346000", "191401.332000", "191402.354000", "191403.314000", "191404.366000", "191405.338000", "191406.322000", "191407.347000", "191408.352000", "191409.379000", "191410.346000", "191411.334000", "191412.384000", "191413.358000", "191414.359000", "191415.353000", "191416.358000", "191417.347000", "191418.327000", "191419.336000", "191420.373000", "191421.406000", "191422.392000", "191423.355000", "191424.345000", "191425.341000", "191426.343000", "191427.344000", "191428.348000", "191429.374000", "191430.349000", "191431.363000", "191432.334000", "191433.352000", "191434.319000", "191435.349000", "191436.336000", "191437.350000", "191438.348000", "191439.333000", "191440.396000", "191441.343000", "191442.390000", "191443.377000", "191444.360000", "191445.391000", "191446.353000", "191447.375000", "191448.365000", "191449.340000", "191450.371000", "191451.349000", "191452.326000", "191453.385000", "191454.344000", "191455.351000", "191456.342000", "191457.365000", "191458.348000", "191459.343000", "191500.356000", "191501.322000", "191502.359000", "191503.351000", "191504.355000", "191505.351000", "191506.393000", "191507.365000", "191508.356000", "191509.373000", "191510.365000", "191511.371000", "191512.347000", "191513.383000", "191514.358000", "191515.366000", "191516.334000", "191517.345000", "191518.335000", "191519.350000", "191520.357000", "191521.342000", "191522.341000", "191523.357000", "191524.366000", "191525.347000", "191526.361000", "191527.375000", "191528.340000", "191529.346000", "191530.362000", "191531.382000", "191532.353000", "191533.342000", "191534.361000", "191535.349000", "191536.351000", "191537.351000", "191538.352000", "191539.354000", "191540.360000", "191541.335000", "191542.360000", "191543.334000", "191544.384000", "191545.405000", "191546.346000", "191547.350000", "191548.356000", "191549.359000", "191550.377000", "191551.352000", "191552.365000", "191553.367000", "191554.375000", "191555.375000", "191556.360000", "191557.370000", "191558.354000", "191559.343000", "191600.350000", "191601.369000", "191602.353000", "191603.369000", "191604.393000", "191605.375000", "191606.346000", "191607.345000", "191608.372000", "191609.354000", "191610.357000", "191611.374000", "191612.307000", "191613.366000", "191614.365000", "191615.343000", "191616.412000", "191617.365000", "191618.346000", "191619.378000", "191620.366000", "191621.339000", "191622.361000", "191623.371000", "191624.357000", "191625.355000", "191626.337000", "191627.342000", "191628.371000", "191629.332000", "191630.353000", "191631.341000", "191632.342000", "191633.350000", "191634.366000", "191635.325000", "191636.348000", "191637.345000", "191638.354000", "191639.336000", "191640.355000", "191641.391000", "191642.345000", "191643.353000", "191644.357000", "191645.364000", "191646.354000", "191647.337000", "191648.347000", "191649.352000", "191650.341000", "191651.341000", "191652.334000", "191653.376000", "191654.359000", "191655.340000", "191656.356000", "191657.351000", "191658.338000", "191659.349000", "191700.334000", "191701.326000", "191702.329000", "191703.348000", "191704.361000", "191705.359000", "191706.350000", "191707.323000", "191708.349000", "191709.338000", "191710.359000", "191711.361000", "191712.347000", "191713.341000", "191714.346000", "191715.347000", "191716.332000", "191717.334000", "191718.358000", "191719.364000", "191720.347000", "191721.361000", "191722.385000", "191723.368000", "191724.332000", "191725.353000", "191726.321000", "191727.332000", "191728.350000", "191729.350000", "191730.390000", "191731.364000", "191732.396000", "191733.395000", "191734.364000", "191735.375000", "191736.368000", "191737.344000", "191738.340000", "191739.386000", "191740.328000", "191741.358000", "191742.356000", "191743.348000", "191744.355000", "191745.387000", "191746.381000", "191747.360000", "191748.364000", "191749.375000", "191750.387000", "191751.392000", "191752.361000", "191753.352000", "191754.364000", "191755.362000", "191756.378000", "191757.342000", "191758.354000", "191759.351000"],
      "InstanceNumber": [1, 2, 3, 4, 5, 6, 7, 8, 9, 10, 11, 12, 13, 14, 15, 16, 17, 18, 19, 20, 21, 22, 23, 24, 25, 26, 27, 28, 29, 30, 31, 32, 33, 34, 35, 36, 37, 38, 39, 40, 41, 42, 43, 44, 45, 46, 47, 48, 49, 50, 51, 52, 53, 54, 55, 56, 57, 58, 59, 60, 61, 62, 63, 64, 65, 66, 67, 68, 69, 70, 71, 72, 73, 74, 75, 76, 77, 78, 79, 80, 81, 82, 83, 84, 85, 86, 87, 88, 89, 90, 91, 92, 93, 94, 95, 96, 97, 98, 99, 100, 101, 102, 103, 104, 105, 106, 107, 108, 109, 110, 111, 112, 113, 114, 115, 116, 117, 118, 119, 120, 121, 122, 123, 124, 125, 126, 127, 128, 129, 130, 131, 132, 133, 134, 135, 136, 137, 138, 139, 140, 141, 142, 143, 144, 145, 146, 147, 148, 149, 150, 151, 152, 153, 154, 155, 156, 157, 158, 159, 160, 161, 162, 163, 164, 165, 166, 167, 168, 169, 170, 171, 172, 173, 174, 175, 176, 177, 178, 179, 180, 181, 182, 183, 184, 185, 186, 187, 188, 189, 190, 191, 192, 193, 194, 195, 196, 197, 198, 199, 200, 201, 202, 203, 204, 205, 206, 207, 208, 209, 210, 211, 212, 213, 214, 215, 216, 217, 218, 219, 220, 221, 222, 223, 224, 225, 226, 227, 228, 229, 230, 231, 232, 233, 234, 235, 236, 237, 238, 239, 240, 241, 242, 243, 244, 245, 246, 247, 248, 249, 250, 251, 252, 253, 254, 255, 256, 257, 258, 259, 260, 261, 262, 263, 264, 265, 266, 267, 268, 269, 270, 271, 272, 273, 274, 275, 276, 277, 278, 279, 280, 281, 282, 283, 284, 285, 286, 287, 288],
      "LargestImagePixelValue": [754, 773, 714, 711, 762, 695, 739, 729, 700, 695, 743, 751, 726, 749, 907, 910, 908, 838, 791, 847, 780, 739, 760, 843, 758, 731, 677, 704, 806, 711, 707, 699, 727, 739, 721, 758, 760, 725, 759, 720, 759, 861, 765, 732, 845, 695, 726, 720, 832, 1268, 1081, 782, 743, 793, 766, 723, 788, 968, 787, 729, 709, 891, 782, 746, 701, 706, 728, 748, 717, 738, 762, 719, 739, 709, 713, 698, 686, 705, 726, 714, 719, 725, 806, 752, 969, 960, 910, 863, 836, 727, 786, 782, 757, 722, 705, 1010, 1006, 676, 1186, 1097, 706, 725, 699, 1159, 820, 739, 726, 830, 817, 828, 782, 805, 697, 720, 735, 844, 755, 727, 731, 729, 738, 749, 767, 754, 704, 762, 901, 720, 935, 1192, 902, 849, 788, 753, 786, 744, 726, 755, 826, 749, 778, 694, 689, 729, 708, 728, 779, 780, 703, 736, 714, 713, 719, 708, 711, 869, 714, 700, 716, 706, 716, 723, 722, 786, 697, 725, 741, 739, 905, 734, 701, 925, 824, 763, 734, 741, 711, 687, 748, 699, 839, 728, 748, 839, 771, 1057, 727, 760, 715, 735, 1007, 833, 738, 722, 765, 677, 690, 699, 756, 731, 686, 770, 779, 711, 753, 888, 1030, 737, 830, 887, 710, 755, 718, 686, 739, 696, 707, 695, 697, 719, 716, 745, 801, 771, 1056, 815, 708, 799, 763, 720, 720, 721, 743, 772, 722, 738, 726, 701, 713, 729, 736, 712, 718, 738, 709, 686, 693, 727, 713, 1011, 752, 749, 1197, 818, 1194, 993, 845, 727, 890, 762, 735, 802, 691, 766, 882, 800, 837, 743, 780, 701, 686, 724, 770, 715, 797, 896, 777, 922, 725, 682, 706, 679, 841, 736, 1232, 1052, 702, 744],
      "WindowCenter": [362.0, 362.0, 361.0, 361.0, 361.0, 360.0, 361.0, 360.0, 361.0, 361.0, 362.0, 363.0, 363.0, 363.0, 365.0, 364.0, 364.0, 363.0, 362.0, 363.0, 361.0, 361.0, 361.0, 363.0, 362.0, 362.0, 361.0, 362.0, 362.0, 362.0, 362.0, 362.0, 362.0, 362.0, 363.0, 363.0, 364.0, 363.0, 364.0, 363.0, 365.0, 367.0, 364.0, 362.0, 364.0, 362.0, 362.0, 363.0, 364.0, 366.0, 363.0, 361.0, 361.0, 361.0, 361.0, 361.0, 361.0, 362.0, 361.0, 360.0, 360.0, 362.0, 361.0, 361.0, 360.0, 360.0, 361.0, 361.0, 361.0, 361.0, 361.0, 362.0, 361.0, 361.0, 361.0, 362.0, 362.0, 362.0, 362.0, 363.0, 364.0, 363.0, 364.0, 363.0, 365.0, 364.0, 363.0, 363.0, 363.0, 362.0, 363.0, 364.0, 364.0, 363.0, 362.0, 364.0, 363.0, 361.0, 365.0, 363.0, 359.0, 361.0, 361.0, 365.0, 360.0, 359.0, 360.0, 362.0, 362.0, 362.0, 361.0, 362.0, 362.0, 362.0, 362.0, 363.0, 362.0, 362.0, 362.0, 362.0, 362.0, 362.0, 363.0, 364.0, 363.0, 364.0, 364.0, 362.0, 363.0, 364.0, 362.0, 361.0, 361.0, 361.0, 360.0, 360.0, 360.0, 360.0, 360.0, 360.0, 361.0, 360.0, 360.0, 361.0, 361.0, 362.0, 364.0, 363.0, 361.0, 362.0, 361.0, 362.0, 361.0, 361.0, 362.0, 363.0, 361.0, 361.0, 361.0, 360.0, 361.0, 361.0, 362.0, 364.0, 363.0, 362.0, 362.0, 361.0, 362.0, 361.0, 360.0, 362.0, 361.0, 361.0, 361.0, 362.0, 362.0, 363.0, 365.0, 364.0, 364.0, 361.0, 361.0, 363.0, 362.0, 363.0, 359.0, 360.0, 361.0, 361.0, 364.0, 362.0, 361.0, 361.0, 361.0, 360.0, 361.0, 361.0, 362.0, 362.0, 363.0, 365.0, 364.0, 362.0, 363.0, 363.0, 364.0, 361.0, 361.0, 362.0, 361.0, 361.0, 360.0, 360.0, 361.0, 361.0, 361.0, 361.0, 362.0, 362.0, 363.0, 364.0, 364.0, 363.0, 364.0, 361.0, 360.0, 361.0, 360.0, 360.0, 360.0, 360.0, 361.0, 361.0, 361.0, 362.0, 362.0, 362.0, 362.0, 362.0, 363.0, 363.0, 363.0, 364.0, 363.0, 363.0, 364.0, 365.0, 365.0, 368.0, 363.0, 363.0, 366.0, 364.0, 366.0, 363.0, 361.0, 360.0, 361.0, 360.0, 360.0, 360.0, 359.0, 361.0, 362.0, 361.0, 362.0, 361.0, 361.0, 360.0, 360.0, 362.0, 364.0, 363.0, 364.0, 364.0, 363.0, 363.0, 360.0, 360.0, 362.0, 362.0, 364.0, 363.0, 367.0, 363.0, 360.0, 361.0],
      "WindowWidth": [775.0, 774.0, 772.0, 772.0, 772.0, 771.0, 772.0, 771.0, 772.0, 773.0, 775.0, 777.0, 777.0, 777.0, 779.0, 778.0, 777.0, 776.0, 774.0, 775.0, 773.0, 773.0, 773.0, 775.0, 774.0, 774.0, 773.0, 774.0, 774.0, 774.0, 774.0, 774.0, 775.0, 776.0, 776.0, 776.0, 778.0, 777.0, 777.0, 777.0, 780.0, 782.0, 778.0, 775.0, 777.0, 775.0, 776.0, 777.0, 777.0, 780.0, 775.0, 771.0, 772.0, 772.0, 772.0, 772.0, 773.0, 774.0, 773.0, 771.0, 771.0, 775.0, 773.0, 772.0, 771.0, 771.0, 772.0, 772.0, 772.0, 773.0, 774.0, 774.0, 774.0, 773.0, 773.0, 774.0, 774.0, 774.0, 775.0, 777.0, 778.0, 777.0, 778.0, 776.0, 778.0, 777.0, 776.0, 776.0, 775.0, 775.0, 777.0, 778.0, 778.0, 776.0, 774.0, 778.0, 776.0, 773.0, 779.0, 775.0, 770.0, 772.0, 772.0, 778.0, 771.0, 769.0, 771.0, 774.0, 774.0, 774.0, 773.0, 774.0, 774.0, 775.0, 775.0, 776.0, 774.0, 774.0, 774.0, 774.0, 775.0, 775.0, 776.0, 778.0, 777.0, 778.0, 778.0, 775.0, 776.0, 777.0, 773.0, 772.0, 771.0, 772.0, 771.0, 771.0, 771.0, 770.0, 771.0, 771.0, 772.0, 771.0, 771.0, 772.0, 774.0, 776.0, 779.0, 776.0, 773.0, 775.0, 774.0, 774.0, 773.0, 773.0, 774.0, 775.0, 773.0, 773.0, 772.0, 772.0, 772.0, 774.0, 775.0, 777.0, 776.0, 776.0, 774.0, 773.0, 775.0, 772.0, 771.0, 774.0, 772.0, 773.0, 773.0, 774.0, 776.0, 777.0, 779.0, 778.0, 777.0, 773.0, 773.0, 775.0, 774.0, 775.0, 770.0, 771.0, 772.0, 773.0, 777.0, 774.0, 772.0, 772.0, 772.0, 771.0, 772.0, 772.0, 774.0, 775.0, 777.0, 780.0, 777.0, 775.0, 777.0, 777.0, 778.0, 773.0, 773.0, 773.0, 772.0, 772.0, 771.0, 771.0, 772.0, 772.0, 772.0, 773.0, 774.0, 775.0, 777.0, 778.0, 777.0, 776.0, 777.0, 773.0, 771.0, 771.0, 770.0, 771.0, 771.0, 771.0, 772.0, 773.0, 773.0, 774.0, 775.0, 775.0, 775.0, 775.0, 776.0, 777.0, 777.0, 778.0, 777.0, 777.0, 779.0, 780.0, 781.0, 784.0, 777.0, 777.0, 781.0, 777.0, 780.0, 775.0, 773.0, 771.0, 772.0, 770.0, 770.0, 771.0, 770.0, 772.0, 773.0, 773.0, 774.0, 772.0, 772.0, 770.0, 772.0, 775.0, 777.0, 777.0, 778.0, 778.0, 777.0, 776.0, 771.0, 772.0, 774.0, 775.0, 779.0, 777.0, 782.0, 776.0, 772.0, 773.0]
    },
    "slices": {}
  }
}