{
  "AcquisitionMatrixPE": 96,
  "AcquisitionNumber": 1,
  "AcquisitionTime": "19:18:34.295000",
  "BandwidthPerPixelPhaseEncode": 18.939,
  "BaseResolution": 96,
  "BodyPartExamined": "BRAIN",
  "ConsistencyInfo": "N4_VE11C_LATEST_20160120",
  "ConversionSoftware": "dcm2niix",
  "ConversionSoftwareVersion": "v1.0.20171215 (OpenJPEG build) GCC6.3.0",
  "DerivedVendorReportedEchoSpacing": 0.000550011,
  "DeviceSerialNumber": "66112",
  "DwellTime": 2.2e-06,
  "EchoTime": 0.033,
  "EchoTrainLength": 96,
  "EffectiveEchoSpacing": 0.000550011,
  "FlipAngle": 59,
  "ImageOrientationPatientDICOM": [
    0.9997,
    0.0199639,
    -0.0141837,
    -0.0193698,
    0.998977,
    0.0408542
  ],
  "ImageType": [
    "ORIGINAL",
    "PRIMARY",
    "FMRI",
    "NONE",
    "ND",
    "NORM",
    "MOSAIC"
  ],
  "InPlanePhaseEncodingDirectionDICOM": "COL",
  "InstitutionAddress": "Maynard_3_Hanover_NH_US_03755",
  "InstitutionName": "Dartmouth_College_-_PBS",
  "InstitutionalDepartmentName": "Department",
  "MRAcquisitionType": "2D",
  "MagneticFieldStrength": 3,
  "Manufacturer": "Siemens",
  "ManufacturersModelName": "Prisma",
  "Modality": "MR",
  "MultibandAccelerationFactor": 4,
  "PatientPosition": "HFS",
  "PercentPhaseFOV": 100,
  "PhaseEncodingDirection": "j-",
  "PhaseEncodingSteps": 96,
  "PhaseResolution": 1,
  "PixelBandwidth": 2365,
  "ProcedureStepDescription": "Gobbini_Matteo_1038_hyperface",
  "ProtocolName": "func_run-07_task-visualmemory",
  "PulseSequenceDetails": "%SiemensSeq%_ep2d_bold",
  "ReceiveCoilActiveElements": "HEA;HEP",
  "ReceiveCoilName": "Head_32",
  "ReconMatrixPE": 96,
  "RepetitionTime": 1,
  "SAR": 0.0546679,
  "ScanOptions": "FS",
  "ScanningSequence": "EP",
  "SequenceName": "_epfid2d1_96",
  "SequenceVariant": "SK",
  "SeriesDescription": "func_run-07_task-visualmemory",
  "SeriesNumber": 49,
  "ShimSetting": [
    4139,
    -7737,
    -7311,
    767,
    -60,
    -34,
    115,
    98
  ],
  "SliceThickness": 2.5,
  "SliceTiming": [
    0.735,
    0,
    0.49,
    0.0825,
    0.5725,
    0.165,
    0.655,
    0.3275,
    0.8175,
    0.41,
    0.9,
    0.245,
    0.735,
    0,
    0.49,
    0.0825,
    0.5725,
    0.165,
    0.655,
    0.3275,
    0.8175,
    0.41,
    0.9,
    0.245,
    0.735,
    0,
    0.49,
    0.0825,
    0.5725,
    0.165,
    0.655,
    0.3275,
    0.8175,
    0.41,
    0.9,
    0.245,
    0.735,
    0,
    0.49,
    0.0825,
    0.5725,
    0.165,
    0.655,
    0.3275,
    0.8175,
    0.41,
    0.9,
    0.245
  ],
  "SoftwareVersions": "syngo_MR_E11",
  "SpacingBetweenSlices": 2.5,
  "StationName": "AWP66112",
  "TotalReadoutTime": 0.0522511,
  "TxRefAmp": 248.358,
  "dcmmeta_affine": [
    [
      -2.4992501735687256,
      -0.04842447116971016,
      -0.03746207058429718,
      123.6741714477539
    ],
    [
      -0.04990965127944946,
      2.497443437576294,
      0.10141805559396744,
      -108.61404418945312
    ],
    [
      -0.03545931726694107,
      -0.10213552415370941,
      2.4976611137390137,
      -57.86848449707031
    ],
    [
      0.0,
      0.0,
      0.0,
      1.0
    ]
  ],
  "dcmmeta_reorient_transform": [
    [
      0.0,
      -1.0,
      0.0,
      95.0
    ],
    [
      1.0,
      0.0,
      0.0,
      0.0
    ],
    [
      0.0,
      0.0,
      1.0,
      0.0
    ],
    [
      0.0,
      0.0,
      0.0,
      1.0
    ]
  ],
  "dcmmeta_shape": [
    96,
    96,
    48,
    288
  ],
  "dcmmeta_slice_dim": 2,
  "dcmmeta_version": 0.6,
  "global": {
    "const": {
      "AccessionNumber": "A001355",
      "AcquisitionMatrix": [
        96,
        0,
        0,
        96
      ],
      "AngioFlag": "N",
      "BitsAllocated": 16,
      "BitsStored": 12,
      "BodyPartExamined": "BRAIN",
      "Columns": 672,
      "EchoNumbers": 1,
      "EchoTime": 33.0,
      "EchoTrainLength": 96,
      "FlipAngle": 59.0,
      "HighBit": 11,
      "ImageOrientationPatient": [
        0.99970008811736,
        0.01996386038869,
        -0.0141837264682,
        -0.019369788615,
        0.99897734946758,
        0.0408542107958
      ],
      "ImagePositionPatient": [
        -824.9116602135,
        -862.28075110974,
        -86.77410985036
      ],
      "ImageType": [
        "ORIGINAL",
        "PRIMARY",
        "FMRI",
        "NONE",
        "ND",
        "NORM",
        "MOSAIC"
      ],
      "ImagedNucleus": "1H",
      "ImagingFrequency": 123.25229,
      "InPlanePhaseEncodingDirection": "COL",
      "MRAcquisitionType": "2D",
      "MagneticFieldStrength": 3.0,
      "Manufacturer": "SIEMENS",
      "ManufacturerModelName": "Prisma",
      "Modality": "MR",
      "NumberOfAverages": 1.0,
      "NumberOfPhaseEncodingSteps": 96,
      "PercentPhaseFieldOfView": 100.0,
      "PercentSampling": 100.0,
      "PerformedProcedureStepStartTime": "183646.702000",
      "PhotometricInterpretation": "MONOCHROME2",
      "PixelBandwidth": 2365.0,
      "PixelRepresentation": 0,
      "PixelSpacing": [
        2.5,
        2.5
      ],
      "PositionReferenceIndicator": "",
      "ProtocolName": "func_run-07_task-visualmemory",
      "RepetitionTime": 1000.0,
      "Rows": 672,
      "SAR": 0.05466793611754,
      "SamplesPerPixel": 1,
      "ScanOptions": "FS",
      "ScanningSequence": "EP",
      "SequenceName": "*epfid2d1_96",
      "SequenceVariant": "SK",
      "SeriesDescription": "func_run-07_task-visualmemory",
      "SeriesNumber": 49,
      "SeriesTime": "191835.180000",
      "SliceLocation": -64.073752871417,
      "SliceThickness": 2.5,
      "SmallestImagePixelValue": 0,
      "SoftwareVersions": "syngo MR E11",
      "SpacingBetweenSlices": 2.4999999224604,
      "SpecificCharacterSet": "ISO_IR 100",
      "StudyID": "3",
      "StudyTime": "183646.645000",
      "TransmitCoilName": "Body",
      "VariableFlipAngleFlag": "N",
      "WindowCenterWidthExplanation": "Algo1",
      "dBdt": 0.0
    },
    "slices": {}
  },
  "time": {
    "samples": {
      "AcquisitionNumber": [
        1,
        2,
        3,
        4,
        5,
        6,
        7,
        8,
        9,
        10,
        11,
        12,
        13,
        14,
        15,
        16,
        17,
        18,
        19,
        20,
        21,
        22,
        23,
        24,
        25,
        26,
        27,
        28,
        29,
        30,
        31,
        32,
        33,
        34,
        35,
        36,
        37,
        38,
        39,
        40,
        41,
        42,
        43,
        44,
        45,
        46,
        47,
        48,
        49,
        50,
        51,
        52,
        53,
        54,
        55,
        56,
        57,
        58,
        59,
        60,
        61,
        62,
        63,
        64,
        65,
        66,
        67,
        68,
        69,
        70,
        71,
        72,
        73,
        74,
        75,
        76,
        77,
        78,
        79,
        80,
        81,
        82,
        83,
        84,
        85,
        86,
        87,
        88,
        89,
        90,
        91,
        92,
        93,
        94,
        95,
        96,
        97,
        98,
        99,
        100,
        101,
        102,
        103,
        104,
        105,
        106,
        107,
        108,
        109,
        110,
        111,
        112,
        113,
        114,
        115,
        116,
        117,
        118,
        119,
        120,
        121,
        122,
        123,
        124,
        125,
        126,
        127,
        128,
        129,
        130,
        131,
        132,
        133,
        134,
        135,
        136,
        137,
        138,
        139,
        140,
        141,
        142,
        143,
        144,
        145,
        146,
        147,
        148,
        149,
        150,
        151,
        152,
        153,
        154,
        155,
        156,
        157,
        158,
        159,
        160,
        161,
        162,
        163,
        164,
        165,
        166,
        167,
        168,
        169,
        170,
        171,
        172,
        173,
        174,
        175,
        176,
        177,
        178,
        179,
        180,
        181,
        182,
        183,
        184,
        185,
        186,
        187,
        188,
        189,
        190,
        191,
        192,
        193,
        194,
        195,
        196,
        197,
        198,
        199,
        200,
        201,
        202,
        203,
        204,
        205,
        206,
        207,
        208,
        209,
        210,
        211,
        212,
        213,
        214,
        215,
        216,
        217,
        218,
        219,
        220,
        221,
        222,
        223,
        224,
        225,
        226,
        227,
        228,
        229,
        230,
        231,
        232,
        233,
        234,
        235,
        236,
        237,
        238,
        239,
        240,
        241,
        242,
        243,
        244,
        245,
        246,
        247,
        248,
        249,
        250,
        251,
        252,
        253,
        254,
        255,
        256,
        257,
        258,
        259,
        260,
        261,
        262,
        263,
        264,
        265,
        266,
        267,
        268,
        269,
        270,
        271,
        272,
        273,
        274,
        275,
        276,
        277,
        278,
        279,
        280,
        281,
        282,
        283,
        284,
        285,
        286,
        287,
        288
      ],
      "AcquisitionTime": [
        "191834.295000",
        "191835.295000",
        "191836.295000",
        "191837.295000",
        "191838.295000",
        "191839.295000",
        "191840.295000",
        "191841.295000",
        "191842.295000",
        "191843.295000",
        "191844.295000",
        "191845.295000",
        "191846.295000",
        "191847.295000",
        "191848.295000",
        "191849.295000",
        "191850.295000",
        "191851.295000",
        "191852.295000",
        "191853.295000",
        "191854.295000",
        "191855.295000",
        "191856.295000",
        "191857.295000",
        "191858.295000",
        "191859.295000",
        "191900.295000",
        "191901.295000",
        "191902.295000",
        "191903.295000",
        "191904.295000",
        "191905.295000",
        "191906.295000",
        "191907.295000",
        "191908.295000",
        "191909.295000",
        "191910.295000",
        "191911.295000",
        "191912.295000",
        "191913.295000",
        "191914.295000",
        "191915.295000",
        "191916.295000",
        "191917.295000",
        "191918.295000",
        "191919.295000",
        "191920.295000",
        "191921.295000",
        "191922.295000",
        "191923.295000",
        "191924.295000",
        "191925.295000",
        "191926.295000",
        "191927.295000",
        "191928.295000",
        "191929.295000",
        "191930.295000",
        "191931.295000",
        "191932.295000",
        "191933.295000",
        "191934.295000",
        "191935.295000",
        "191936.295000",
        "191937.295000",
        "191938.295000",
        "191939.295000",
        "191940.295000",
        "191941.295000",
        "191942.295000",
        "191943.295000",
        "191944.295000",
        "191945.295000",
        "191946.295000",
        "191947.295000",
        "191948.295000",
        "191949.295000",
        "191950.295000",
        "191951.295000",
        "191952.295000",
        "191953.295000",
        "191954.295000",
        "191955.295000",
        "191956.295000",
        "191957.295000",
        "191958.295000",
        "191959.295000",
        "192000.295000",
        "192001.295000",
        "192002.295000",
        "192003.295000",
        "192004.295000",
        "192005.295000",
        "192006.295000",
        "192007.295000",
        "192008.295000",
        "192009.295000",
        "192010.295000",
        "192011.295000",
        "192012.295000",
        "192013.295000",
        "192014.295000",
        "192015.295000",
        "192016.295000",
        "192017.295000",
        "192018.295000",
        "192019.295000",
        "192020.295000",
        "192021.295000",
        "192022.295000",
        "192023.295000",
        "192024.295000",
        "192025.295000",
        "192026.295000",
        "192027.295000",
        "192028.295000",
        "192029.295000",
        "192030.295000",
        "192031.295000",
        "192032.295000",
        "192033.295000",
        "192034.295000",
        "192035.295000",
        "192036.295000",
        "192037.295000",
        "192038.295000",
        "192039.295000",
        "192040.295000",
        "192041.295000",
        "192042.295000",
        "192043.295000",
        "192044.295000",
        "192045.295000",
        "192046.295000",
        "192047.295000",
        "192048.295000",
        "192049.295000",
        "192050.295000",
        "192051.295000",
        "192052.295000",
        "192053.295000",
        "192054.295000",
        "192055.295000",
        "192056.295000",
        "192057.295000",
        "192058.295000",
        "192059.295000",
        "192100.295000",
        "192101.295000",
        "192102.295000",
        "192103.295000",
        "192104.295000",
        "192105.295000",
        "192106.295000",
        "192107.295000",
        "192108.295000",
        "192109.295000",
        "192110.295000",
        "192111.295000",
        "192112.295000",
        "192113.295000",
        "192114.295000",
        "192115.295000",
        "192116.295000",
        "192117.295000",
        "192118.295000",
        "192119.295000",
        "192120.295000",
        "192121.295000",
        "192122.295000",
        "192123.295000",
        "192124.295000",
        "192125.295000",
        "192126.295000",
        "192127.295000",
        "192128.295000",
        "192129.295000",
        "192130.295000",
        "192131.295000",
        "192132.295000",
        "192133.295000",
        "192134.295000",
        "192135.295000",
        "192136.295000",
        "192137.295000",
        "192138.295000",
        "192139.295000",
        "192140.295000",
        "192141.295000",
        "192142.295000",
        "192143.295000",
        "192144.295000",
        "192145.295000",
        "192146.295000",
        "192147.295000",
        "192148.295000",
        "192149.295000",
        "192150.295000",
        "192151.295000",
        "192152.295000",
        "192153.295000",
        "192154.295000",
        "192155.295000",
        "192156.295000",
        "192157.295000",
        "192158.295000",
        "192159.295000",
        "192200.295000",
        "192201.295000",
        "192202.295000",
        "192203.295000",
        "192204.295000",
        "192205.295000",
        "192206.295000",
        "192207.295000",
        "192208.295000",
        "192209.295000",
        "192210.295000",
        "192211.295000",
        "192212.295000",
        "192213.295000",
        "192214.295000",
        "192215.295000",
        "192216.295000",
        "192217.295000",
        "192218.295000",
        "192219.295000",
        "192220.295000",
        "192221.295000",
        "192222.295000",
        "192223.295000",
        "192224.295000",
        "192225.295000",
        "192226.295000",
        "192227.295000",
        "192228.295000",
        "192229.295000",
        "192230.295000",
        "192231.295000",
        "192232.295000",
        "192233.295000",
        "192234.295000",
        "192235.295000",
        "192236.295000",
        "192237.295000",
        "192238.295000",
        "192239.295000",
        "192240.295000",
        "192241.295000",
        "192242.295000",
        "192243.295000",
        "192244.295000",
        "192245.295000",
        "192246.295000",
        "192247.295000",
        "192248.295000",
        "192249.295000",
        "192250.295000",
        "192251.295000",
        "192252.295000",
        "192253.295000",
        "192254.295000",
        "192255.295000",
        "192256.295000",
        "192257.295000",
        "192258.295000",
        "192259.295000",
        "192300.295000",
        "192301.295000",
        "192302.295000",
        "192303.295000",
        "192304.295000",
        "192305.295000",
        "192306.295000",
        "192307.295000",
        "192308.295000",
        "192309.295000",
        "192310.295000",
        "192311.295000",
        "192312.295000",
        "192313.295000",
        "192314.295000",
        "192315.295000",
        "192316.295000",
        "192317.295000",
        "192318.295000",
        "192319.295000",
        "192320.295000",
        "192321.295000"
      ],
      "ContentTime": [
        "191835.184000",
        "191836.009000",
        "191837.061000",
        "191838.024000",
        "191839.054000",
        "191840.034000",
        "191841.033000",
        "191842.037000",
        "191843.074000",
        "191844.023000",
        "191845.073000",
        "191846.030000",
        "191846.998000",
        "191848.013000",
        "191849.010000",
        "191850.008000",
        "191851.017000",
        "191852.038000",
        "191853.025000",
        "191854.017000",
        "191855.031000",
        "191856.015000",
        "191857.023000",
        "191858.023000",
        "191859.009000",
        "191900.078000",
        "191900.998000",
        "191902.043000",
        "191903.009000",
        "191904.082000",
        "191905.023000",
        "191906.035000",
        "191907.023000",
        "191908.016000",
        "191909.031000",
        "191910.034000",
        "191911.023000",
        "191912.031000",
        "191913.003000",
        "191913.991000",
        "191914.994000",
        "191915.992000",
        "191917.019000",
        "191918.019000",
        "191919.025000",
        "191920.020000",
        "191921.007000",
        "191922.031000",
        "191923.001000",
        "191924.048000",
        "191925.015000",
        "191926.007000",
        "191927.017000",
        "191927.986000",
        "191929.023000",
        "191930.035000",
        "191931.010000",
        "191932.010000",
        "191933.013000",
        "191934.019000",
        "191935.032000",
        "191936.070000",
        "191936.996000",
        "191938.016000",
        "191939.027000",
        "191940.003000",
        "191940.997000",
        "191942.001000",
        "191943.020000",
        "191944.011000",
        "191945.024000",
        "191945.986000",
        "191947.021000",
        "191948.025000",
        "191949.028000",
        "191950.016000",
        "191951.032000",
        "191952.032000",
        "191953.004000",
        "191954.065000",
        "191955.114000",
        "191955.993000",
        "191956.993000",
        "191958.036000",
        "191959.057000",
        "192000.013000",
        "192001.021000",
        "192002.016000",
        "192003.022000",
        "192004.013000",
        "192005.021000",
        "192006.007000",
        "192007.013000",
        "192008.033000",
        "192008.996000",
        "192010.003000",
        "192011.010000",
        "192012.016000",
        "192012.985000",
        "192014.032000",
        "192015.050000",
        "192016.021000",
        "192017.009000",
        "192018.012000",
        "192019.011000",
        "192020.025000",
        "192021.013000",
        "192022.015000",
        "192023.020000",
        "192024.042000",
        "192025.004000",
        "192026.034000",
        "192027.027000",
        "192028.012000",
        "192029.055000",
        "192030.028000",
        "192031.033000",
        "192032.017000",
        "192033.020000",
        "192034.007000",
        "192035.033000",
        "192036.032000",
        "192037.019000",
        "192038.027000",
        "192039.037000",
        "192040.079000",
        "192041.034000",
        "192042.031000",
        "192043.034000",
        "192044.020000",
        "192045.035000",
        "192046.054000",
        "192047.062000",
        "192048.071000",
        "192049.020000",
        "192050.053000",
        "192051.056000",
        "192052.032000",
        "192053.069000",
        "192054.059000",
        "192055.036000",
        "192056.055000",
        "192057.021000",
        "192058.058000",
        "192059.021000",
        "192100.006000",
        "192101.017000",
        "192102.033000",
        "192103.019000",
        "192104.011000",
        "192105.031000",
        "192106.023000",
        "192107.007000",
        "192108.043000",
        "192109.016000",
        "192110.033000",
        "192111.023000",
        "192112.021000",
        "192113.015000",
        "192114.024000",
        "192115.016000",
        "192116.010000",
        "192117.035000",
        "192118.049000",
        "192119.026000",
        "192120.030000",
        "192121.018000",
        "192122.037000",
        "192123.026000",
        "192124.032000",
        "192125.039000",
        "192126.052000",
        "192127.062000",
        "192128.034000",
        "192129.019000",
        "192130.028000",
        "192131.016000",
        "192132.036000",
        "192133.010000",
        "192134.036000",
        "192135.035000",
        "192136.057000",
        "192136.995000",
        "192138.025000",
        "192139.015000",
        "192140.036000",
        "192141.033000",
        "192142.060000",
        "192143.034000",
        "192144.037000",
        "192145.006000",
        "192146.038000",
        "192147.021000",
        "192148.062000",
        "192149.030000",
        "192150.016000",
        "192151.031000",
        "192151.999000",
        "192152.994000",
        "192154.007000",
        "192155.041000",
        "192156.022000",
        "192157.008000",
        "192158.015000",
        "192159.026000",
        "192200.022000",
        "192201.046000",
        "192202.044000",
        "192203.074000",
        "192204.035000",
        "192205.028000",
        "192206.071000",
        "192207.037000",
        "192208.035000",
        "192209.062000",
        "192210.046000",
        "192211.032000",
        "192212.017000",
        "192212.996000",
        "192214.027000",
        "192215.036000",
        "192216.031000",
        "192217.106000",
        "192218.054000",
        "192219.008000",
        "192220.029000",
        "192221.046000",
        "192222.060000",
        "192223.003000",
        "192224.040000",
        "192225.002000",
        "192226.042000",
        "192227.020000",
        "192228.031000",
        "192229.005000",
        "192230.029000",
        "192230.986000",
        "192232.004000",
        "192233.040000",
        "192234.078000",
        "192235.023000",
        "192236.000000",
        "192237.034000",
        "192238.009000",
        "192239.012000",
        "192240.020000",
        "192241.025000",
        "192242.027000",
        "192243.025000",
        "192244.029000",
        "192245.010000",
        "192246.012000",
        "192247.059000",
        "192248.027000",
        "192249.017000",
        "192250.058000",
        "192251.002000",
        "192252.018000",
        "192253.043000",
        "192254.027000",
        "192255.038000",
        "192256.017000",
        "192257.019000",
        "192258.021000",
        "192259.015000",
        "192300.033000",
        "192301.020000",
        "192302.029000",
        "192303.041000",
        "192304.016000",
        "192305.027000",
        "192306.088000",
        "192307.044000",
        "192308.033000",
        "192308.992000",
        "192310.031000",
        "192311.041000",
        "192312.058000",
        "192313.011000",
        "192314.027000",
        "192315.028000",
        "192316.073000",
        "192317.026000",
        "192318.051000",
        "192319.039000",
        "192320.015000",
        "192321.023000",
        "192322.048000"
      ],
      "InstanceCreationTime": [
        "191835.184000",
        "191836.009000",
        "191837.061000",
        "191838.024000",
        "191839.054000",
        "191840.034000",
        "191841.033000",
        "191842.037000",
        "191843.074000",
        "191844.023000",
        "191845.073000",
        "191846.030000",
        "191846.998000",
        "191848.013000",
        "191849.010000",
        "191850.008000",
        "191851.017000",
        "191852.038000",
        "191853.025000",
        "191854.017000",
        "191855.031000",
        "191856.015000",
        "191857.023000",
        "191858.023000",
        "191859.009000",
        "191900.078000",
        "191900.998000",
        "191902.043000",
        "191903.009000",
        "191904.082000",
        "191905.023000",
        "191906.035000",
        "191907.023000",
        "191908.016000",
        "191909.031000",
        "191910.034000",
        "191911.023000",
        "191912.031000",
        "191913.003000",
        "191913.991000",
        "191914.994000",
        "191915.992000",
        "191917.019000",
        "191918.019000",
        "191919.025000",
        "191920.020000",
        "191921.007000",
        "191922.031000",
        "191923.001000",
        "191924.048000",
        "191925.015000",
        "191926.007000",
        "191927.017000",
        "191927.986000",
        "191929.023000",
        "191930.035000",
        "191931.010000",
        "191932.010000",
        "191933.013000",
        "191934.019000",
        "191935.032000",
        "191936.070000",
        "191936.996000",
        "191938.016000",
        "191939.027000",
        "191940.003000",
        "191940.997000",
        "191942.001000",
        "191943.020000",
        "191944.011000",
        "191945.024000",
        "191945.986000",
        "191947.021000",
        "191948.025000",
        "191949.028000",
        "191950.016000",
        "191951.032000",
        "191952.032000",
        "191953.004000",
        "191954.065000",
        "191955.114000",
        "191955.993000",
        "191956.993000",
        "191958.036000",
        "191959.057000",
        "192000.013000",
        "192001.021000",
        "192002.016000",
        "192003.022000",
        "192004.013000",
        "192005.021000",
        "192006.007000",
        "192007.013000",
        "192008.033000",
        "192008.996000",
        "192010.003000",
        "192011.010000",
        "192012.016000",
        "192012.985000",
        "192014.032000",
        "192015.050000",
        "192016.021000",
        "192017.009000",
        "192018.012000",
        "192019.011000",
        "192020.025000",
        "192021.013000",
        "192022.015000",
        "192023.020000",
        "192024.042000",
        "192025.004000",
        "192026.034000",
        "192027.027000",
        "192028.012000",
        "192029.055000",
        "192030.028000",
        "192031.033000",
        "192032.017000",
        "192033.020000",
        "192034.007000",
        "192035.033000",
        "192036.032000",
        "192037.019000",
        "192038.027000",
        "192039.037000",
        "192040.079000",
        "192041.034000",
        "192042.031000",
        "192043.034000",
        "192044.020000",
        "192045.035000",
        "192046.054000",
        "192047.062000",
        "192048.071000",
        "192049.020000",
        "192050.053000",
        "192051.056000",
        "192052.032000",
        "192053.069000",
        "192054.059000",
        "192055.036000",
        "192056.055000",
        "192057.021000",
        "192058.058000",
        "192059.021000",
        "192100.006000",
        "192101.017000",
        "192102.033000",
        "192103.019000",
        "192104.011000",
        "192105.031000",
        "192106.023000",
        "192107.007000",
        "192108.043000",
        "192109.016000",
        "192110.033000",
        "192111.023000",
        "192112.021000",
        "192113.015000",
        "192114.024000",
        "192115.016000",
        "192116.010000",
        "192117.035000",
        "192118.049000",
        "192119.026000",
        "192120.030000",
        "192121.018000",
        "192122.037000",
        "192123.026000",
        "192124.032000",
        "192125.039000",
        "192126.052000",
        "192127.062000",
        "192128.034000",
        "192129.019000",
        "192130.028000",
        "192131.016000",
        "192132.036000",
        "192133.010000",
        "192134.036000",
        "192135.035000",
        "192136.057000",
        "192136.995000",
        "192138.025000",
        "192139.015000",
        "192140.036000",
        "192141.033000",
        "192142.060000",
        "192143.034000",
        "192144.037000",
        "192145.006000",
        "192146.038000",
        "192147.021000",
        "192148.062000",
        "192149.030000",
        "192150.016000",
        "192151.031000",
        "192151.999000",
        "192152.994000",
        "192154.007000",
        "192155.041000",
        "192156.022000",
        "192157.008000",
        "192158.015000",
        "192159.026000",
        "192200.022000",
        "192201.046000",
        "192202.044000",
        "192203.074000",
        "192204.035000",
        "192205.028000",
        "192206.071000",
        "192207.037000",
        "192208.035000",
        "192209.062000",
        "192210.046000",
        "192211.032000",
        "192212.017000",
        "192212.996000",
        "192214.027000",
        "192215.036000",
        "192216.031000",
        "192217.106000",
        "192218.054000",
        "192219.008000",
        "192220.029000",
        "192221.046000",
        "192222.060000",
        "192223.003000",
        "192224.040000",
        "192225.002000",
        "192226.042000",
        "192227.020000",
        "192228.031000",
        "192229.005000",
