{
  "AcquisitionMatrixPE": 96,
  "AcquisitionNumber": 1,
  "BandwidthPerPixelPhaseEncode": 18.939,
  "BaseResolution": 96,
  "BodyPartExamined": "BRAIN",
  "ConsistencyInfo": "N4_VE11C_LATEST_20160120",
  "ConversionSoftware": "dcm2niix",
  "ConversionSoftwareVersion": "v1.0.20171215 (OpenJPEG build) GCC6.3.0",
  "DerivedVendorReportedEchoSpacing": 0.000550011,
  "DeviceSerialNumber": "66112",
  "DwellTime": 2.2e-06,
  "EchoTime": 0.033,
  "EchoTrainLength": 96,
  "EffectiveEchoSpacing": 0.000550011,
  "FlipAngle": 59,
  "ImageOrientationPatientDICOM": [
    0.998778,
    0.0474279,
    0.0139095,
    -0.0474506,
    0.998873,
    0.00130639
  ],
  "ImageType": [
    "ORIGINAL",
    "PRIMARY",
    "FMRI",
    "NONE",
    "ND",
    "NORM",
    "MOSAIC"
  ],
  "InPlanePhaseEncodingDirectionDICOM": "COL",
  "InstitutionAddress": "Maynard_3_Hanover_NH_US_03755",
  "InstitutionName": "Dartmouth_College_-_PBS",
  "InstitutionalDepartmentName": "Department",
  "MRAcquisitionType": "2D",
  "MagneticFieldStrength": 3,
  "Manufacturer": "Siemens",
  "ManufacturersModelName": "Prisma",
  "Modality": "MR",
  "MultibandAccelerationFactor": 4,
  "PatientPosition": "HFS",
  "PercentPhaseFOV": 100,
  "PhaseEncodingDirection": "j-",
  "PhaseEncodingSteps": 96,
  "PhaseResolution": 1,
  "PixelBandwidth": 2365,
  "ProcedureStepDescription": "Gobbini_Matteo_1038_hyperface",
  "ProtocolName": "func_run-07_task-visualmemory",
  "PulseSequenceDetails": "%SiemensSeq%_ep2d_bold",
  "ReceiveCoilActiveElements": "HEA;HEP",
  "ReceiveCoilName": "Head_32",
  "ReconMatrixPE": 96,
  "RepetitionTime": 1,
  "SAR": 0.0440479,
  "ScanOptions": "FS",
  "ScanningSequence": "EP",
  "SequenceName": "_epfid2d1_96",
  "SequenceVariant": "SK",
  "SeriesDescription": "func_run-07_task-visualmemory",
  "SeriesNumber": 50,
  "ShimSetting": [
    4140,
    -7705,
    -7315,
    591,
    -34,
    -21,
    3,
    59
  ],
  "SliceThickness": 2.5,
  "SliceTiming": [
    0.735,
    0,
    0.49,
    0.0825,
    0.5725,
    0.165,
    0.655,
    0.3275,
    0.8175,
    0.41,
    0.9,
    0.245,
    0.735,
    0,
    0.49,
    0.0825,
    0.5725,
    0.165,
    0.655,
    0.3275,
    0.8175,
    0.41,
    0.9,
    0.245,
    0.735,
    0,
    0.49,
    0.0825,
    0.5725,
    0.165,
    0.655,
    0.3275,
    0.8175,
    0.41,
    0.9,
    0.245,
    0.735,
    0,
    0.49,
    0.0825,
    0.5725,
    0.165,
    0.655,
    0.3275,
    0.8175,
    0.41,
    0.9,
    0.245
  ],
  "SoftwareVersions": "syngo_MR_E11",
  "SpacingBetweenSlices": 2.5,
  "StationName": "AWP66112",
  "TotalReadoutTime": 0.0522511,
  "TxRefAmp": 222.057,
  "time": {
    "samples": {
      "AcquisitionNumber": [
        1,
        2,
        3,
        4,
        5,
        6,
        7,
        8,
        9,
        10,
        11,
        12,
        13,
        14,
        15,
        16,
        17,
        18,
        19,
        20,
        21,
        22,
        23,
        24,
        25,
        26,
        27,
        28,
        29,
        30,
        31,
        32,
        33,
        34,
        35,
        36,
        37,
        38,
        39,
        40,
        41,
        42,
        43,
        44,
        45,
        46,
        47,
        48,
        49,
        50,
        51,
        52,
        53,
        54,
        55,
        56,
        57,
        58,
        59,
        60,
        61,
        62,
        63,
        64,
        65,
        66,
        67,
        68,
        69,
        70,
        71,
        72,
        73,
        74,
        75,
        76,
        77,
        78,
        79,
        80,
        81,
        82,
        83,
        84,
        85,
        86,
        87,
        88,
        89,
        90,
        91,
        92,
        93,
        94,
        95,
        96,
        97,
        98,
        99,
        100,
        101,
        102,
        103,
        104,
        105,
        106,
        107,
        108,
        109,
        110,
        111,
        112,
        113,
        114,
        115,
        116,
        117,
        118,
        119,
        120,
        121,
        122,
        123,
        124,
        125,
        126,
        127,
        128,
        129,
        130,
        131,
        132,
        133,
        134,
        135,
        136,
        137,
        138,
        139,
        140,
        141,
        142,
        143,
        144,
        145,
        146,
        147,
        148,
        149,
        150,
        151,
        152,
        153,
        154,
        155,
        156,
        157,
        158,
        159,
        160,
        161,
        162,
        163,
        164,
        165,
        166,
        167,
        168,
        169,
        170,
        171,
        172,
        173,
        174,
        175,
        176,
        177,
        178,
        179,
        180,
        181,
        182,
        183,
        184,
        185,
        186,
        187,
        188,
        189,
        190,
        191,
        192,
        193,
        194,
        195,
        196,
        197,
        198,
        199,
        200,
        201,
        202,
        203,
        204,
        205,
        206,
        207,
        208,
        209,
        210,
        211,
        212,
        213,
        214,
        215,
        216,
        217,
        218,
        219,
        220,
        221,
        222,
        223,
        224,
        225,
        226,
        227,
        228,
        229,
        230,
        231,
        232,
        233,
        234,
        235,
        236,
        237,
        238,
        239,
        240,
        241,
        242,
        243,
        244,
        245,
        246,
        247,
        248,
        249,
        250,
        251,
        252,
        253,
        254,
        255,
        256,
        257,
        258,
        259,
        260,
        261,
        262,
        263,
        264,
        265,
        266,
        267,
        268,
        269,
        270,
        271,
        272,
        273,
        274,
        275,
        276,
        277,
        278,
        279,
        280,
        281,
        282,
        283,
        284,
        285,
        286,
        287,
        288
      ],
      "AcquisitionTime": [
        "174924.080000",
        "174925.080000",
        "174926.080000",
        "174927.080000",
        "174928.080000",
        "174929.080000",
        "174930.080000",
        "174931.080000",
        "174932.080000",
        "174933.080000",
        "174934.080000",
        "174935.080000",
        "174936.080000",
        "174937.080000",
        "174938.080000",
        "174939.080000",
        "174940.080000",
        "174941.080000",
        "174942.080000",
        "174943.080000",
        "174944.080000",
        "174945.080000",
        "174946.080000",
        "174947.080000",
        "174948.080000",
        "174949.080000",
        "174950.080000",
        "174951.080000",
        "174952.080000",
        "174953.080000",
        "174954.080000",
        "174955.080000",
        "174956.080000",
        "174957.080000",
        "174958.080000",
        "174959.080000",
        "175000.080000",
        "175001.080000",
        "175002.080000",
        "175003.080000",
        "175004.080000",
        "175005.080000",
        "175006.080000",
        "175007.080000",
        "175008.080000",
        "175009.080000",
        "175010.080000",
        "175011.080000",
        "175012.080000",
        "175013.080000",
        "175014.080000",
        "175015.080000",
        "175016.080000",
        "175017.080000",
        "175018.080000",
        "175019.080000",
        "175020.080000",
        "175021.080000",
        "175022.080000",
        "175023.080000",
        "175024.080000",
        "175025.080000",
        "175026.080000",
        "175027.080000",
        "175028.080000",
        "175029.080000",
        "175030.080000",
        "175031.080000",
        "175032.080000",
        "175033.080000",
        "175034.080000",
        "175035.080000",
        "175036.080000",
        "175037.080000",
        "175038.080000",
        "175039.080000",
        "175040.080000",
        "175041.080000",
        "175042.080000",
        "175043.080000",
        "175044.080000",
        "175045.080000",
        "175046.080000",
        "175047.080000",
        "175048.080000",
        "175049.080000",
        "175050.080000",
        "175051.080000",
        "175052.080000",
        "175053.080000",
        "175054.080000",
        "175055.080000",
        "175056.080000",
        "175057.080000",
        "175058.080000",
        "175059.080000",
        "175100.080000",
        "175101.080000",
        "175102.080000",
        "175103.080000",
        "175104.080000",
        "175105.080000",
        "175106.080000",
        "175107.080000",
        "175108.080000",
        "175109.080000",
        "175110.080000",
        "175111.080000",
        "175112.080000",
        "175113.080000",
        "175114.080000",
        "175115.080000",
        "175116.080000",
        "175117.080000",
        "175118.080000",
        "175119.080000",
        "175120.080000",
        "175121.080000",
        "175122.080000",
        "175123.080000",
        "175124.080000",
        "175125.080000",
        "175126.080000",
        "175127.080000",
        "175128.080000",
        "175129.080000",
        "175130.080000",
        "175131.080000",
        "175132.080000",
        "175133.080000",
        "175134.080000",
        "175135.080000",
        "175136.080000",
        "175137.080000",
        "175138.080000",
        "175139.080000",
        "175140.080000",
        "175141.080000",
        "175142.080000",
        "175143.080000",
        "175144.080000",
        "175145.080000",
        "175146.080000",
        "175147.080000",
        "175148.080000",
        "175149.080000",
        "175150.080000",
        "175151.080000",
        "175152.080000",
        "175153.080000",
        "175154.080000",
        "175155.080000",
        "175156.080000",
        "175157.080000",
        "175158.080000",
        "175159.080000",
        "175200.080000",
        "175201.080000",
        "175202.080000",
        "175203.080000",
        "175204.080000",
        "175205.080000",
        "175206.080000",
        "175207.080000",
        "175208.080000",
        "175209.080000",
        "175210.080000",
        "175211.080000",
        "175212.080000",
        "175213.080000",
        "175214.080000",
        "175215.080000",
        "175216.080000",
        "175217.080000",
        "175218.080000",
        "175219.080000",
        "175220.080000",
        "175221.080000",
        "175222.080000",
        "175223.080000",
        "175224.080000",
        "175225.080000",
        "175226.080000",
        "175227.080000",
        "175228.080000",
        "175229.080000",
        "175230.080000",
        "175231.080000",
        "175232.080000",
        "175233.080000",
        "175234.080000",
        "175235.080000",
        "175236.080000",
        "175237.080000",
        "175238.080000",
        "175239.080000",
        "175240.080000",
        "175241.080000",
        "175242.080000",
        "175243.080000",
        "175244.080000",
        "175245.080000",
        "175246.080000",
        "175247.080000",
        "175248.080000",
        "175249.080000",
        "175250.080000",
        "175251.080000",
        "175252.080000",
        "175253.080000",
        "175254.080000",
        "175255.080000",
        "175256.080000",
        "175257.080000",
        "175258.080000",
        "175259.080000",
        "175300.080000",
        "175301.080000",
        "175302.080000",
        "175303.080000",
        "175304.080000",
        "175305.080000",
        "175306.080000",
        "175307.080000",
        "175308.080000",
        "175309.080000",
        "175310.080000",
        "175311.080000",
        "175312.080000",
        "175313.080000",
        "175314.080000",
        "175315.080000",
        "175316.080000",
        "175317.080000",
        "175318.080000",
        "175319.080000",
        "175320.080000",
        "175321.080000",
        "175322.080000",
        "175323.080000",
        "175324.080000",
        "175325.080000",
        "175326.080000",
        "175327.080000",
        "175328.080000",
        "175329.080000",
        "175330.080000",
        "175331.080000",
        "175332.080000",
        "175333.080000",
        "175334.080000",
        "175335.080000",
        "175336.080000",
        "175337.080000",
        "175338.080000",
        "175339.080000",
        "175340.080000",
        "175341.080000",
        "175342.080000",
        "175343.080000",
        "175344.080000",
        "175345.080000",
        "175346.080000",
        "175347.080000",
        "175348.080000",
        "175349.080000",
        "175350.080000",
        "175351.080000",
        "175352.080000",
        "175353.080000",
        "175354.080000",
        "175355.080000",
        "175356.080000",
        "175357.080000",
        "175358.080000",
        "175359.080000",
        "175400.080000",
        "175401.080000",
        "175402.080000",
        "175403.080000",
        "175404.080000",
        "175405.080000",
        "175406.080000",
        "175407.080000",
        "175408.080000",
        "175409.080000",
        "175410.080000",
        "175411.080000"
      ],
      "ContentTime": [
        "174925.505000",
        "174926.388000",
        "174927.362000",
        "174928.369000",
        "174929.375000",
        "174930.363000",
        "174931.376000",
        "174932.363000",
        "174933.401000",
        "174934.378000",
        "174935.374000",
        "174936.360000",
        "174937.372000",
        "174938.353000",
        "174939.393000",
        "174940.420000",
        "174941.346000",
        "174942.378000",
        "174943.385000",
        "174944.382000",
        "174945.393000",
        "174946.387000",
        "174947.360000",
        "174948.359000",
        "174949.330000",
        "174950.372000",
        "174951.325000",
        "174952.353000",
        "174953.351000",
        "174954.365000",
        "174955.369000",
        "174956.361000",
        "174957.353000",
        "174958.379000",
        "174959.364000",
        "175000.344000",
        "175001.342000",
        "175002.348000",
        "175003.343000",
        "175004.354000",
        "175005.369000",
        "175006.351000",
        "175007.357000",
        "175008.381000",
        "175009.363000",
        "175010.357000",
        "175011.363000",
        "175012.359000",
        "175013.350000",
        "175014.363000",
        "175015.360000",
        "175016.369000",
        "175017.385000",
        "175018.356000",
        "175019.366000",
        "175020.372000",
        "175021.354000",
        "175022.352000",
        "175023.353000",
        "175024.340000",
        "175025.337000",
        "175026.396000",
        "175027.362000",
        "175028.367000",
        "175029.407000",
        "175030.359000",
        "175031.341000",
        "175032.348000",
        "175033.346000",
        "175034.356000",
        "175035.353000",
        "175036.357000",
        "175037.404000",
        "175038.335000",
        "175039.353000",
        "175040.338000",
        "175041.365000",
        "175042.351000",
        "175043.364000",
        "175044.365000",
        "175045.364000",
        "175046.381000",
        "175047.353000",
        "175048.378000",
        "175049.345000",
        "175050.360000",
        "175051.356000",
        "175052.368000",
        "175053.343000",
        "175054.366000",
        "175055.359000",
        "175056.367000",
        "175057.357000",
        "175058.360000",
        "175059.375000",
        "175100.339000",
        "175101.311000",
        "175102.351000",
        "175103.354000",
        "175104.368000",
        "175105.330000",
        "175106.386000",
        "175107.405000",
        "175108.374000",
        "175109.375000",
        "175110.384000",
        "175111.352000",
        "175112.374000",
        "175113.366000",
        "175114.369000",
        "175115.370000",
        "175116.372000",
        "175117.394000",
        "175118.352000",
        "175119.362000",
        "175120.372000",
        "175121.378000",
        "175122.375000",
        "175123.361000",
        "175124.384000",
        "175125.345000",
        "175126.363000",
        "175127.382000",
        "175128.373000",
        "175129.384000",
        "175130.369000",
        "175131.377000",
        "175132.364000",
        "175133.371000",
        "175134.365000",
        "175135.367000",
        "175136.381000",
        "175137.360000",
        "175138.351000",
        "175139.348000",
        "175140.376000",
        "175141.363000",
        "175142.418000",
        "175143.367000",
        "175144.369000",
        "175145.359000",
        "175146.349000",
        "175147.365000",
        "175148.380000",
        "175149.371000",
        "175150.364000",
        "175151.348000",
        "175152.383000",
        "175153.371000",
        "175154.365000",
        "175155.361000",
        "175156.381000",
        "175157.352000",
        "175158.397000",
        "175159.369000",
        "175200.359000",
        "175201.370000",
        "175202.363000",
        "175203.372000",
        "175204.374000",
        "175205.364000",
        "175206.370000",
        "175207.355000",
        "175208.355000",
        "175209.342000",
        "175210.367000",
        "175211.363000",
        "175212.374000",
        "175213.351000",
        "175214.350000",
        "175215.368000",
        "175216.366000",
        "175217.349000",
        "175218.384000",
        "175219.356000",
        "175220.376000",
        "175221.349000",
        "175222.391000",
        "175223.356000",
        "175224.363000",
        "175225.360000",
        "175226.352000",
        "175227.357000",
        "175228.361000",
        "175229.380000",
        "175230.340000",
        "175231.391000",
        "175232.364000",
        "175233.354000",
        "175234.364000",
        "175235.340000",
        "175236.349000",
        "175237.361000",
        "175238.357000",
        "175239.348000",
        "175240.352000",
        "175241.349000",
        "175242.340000",
        "175243.367000",
        "175244.353000",
        "175245.359000",
        "175246.362000",
        "175247.373000",
        "175248.369000",
        "175249.361000",
        "175250.397000",
        "175251.343000",
        "175252.364000",
        "175253.358000",
        "175254.355000",
        "175255.347000",
        "175256.337000",
        "175257.364000",
        "175258.385000",
        "175259.369000",
        "175300.369000",
        "175301.366000",
        "175302.358000",
        "175303.372000",
        "175304.385000",
        "175305.357000",
        "175306.352000",
        "175307.361000",
        "175308.346000",
        "175309.351000",
        "175310.346000",
        "175311.342000",
        "175312.396000",
        "175313.371000",
        "175314.360000",
        "175315.394000",
        "175316.366000",
        "175317.342000",
        "175318.374000",
        "175319.349000",
        "175320.346000",
        "175321.364000",
        "175322.355000",
        "175323.361000",
        "175324.334000",
        "175325.352000",
        "175326.372000",
        "175327.337000",
        "175328.372000",
        "175329.372000",
        "175330.384000",
        "175331.367000",
        "175332.364000",
        "175333.357000",
        "175334.337000",
        "175335.357000",
        "175336.346000",
        "175337.341000",
        "175338.397000",
        "175339.363000",
        "175340.361000",
        "175341.362000",
        "175342.345000",
        "175343.368000",
        "175344.346000",
        "175345.340000",
        "175346.398000",
        "175347.355000",
        "175348.374000",
        "175349.368000",
        "175350.349000",
        "175351.374000",
        "175352.342000",
        "175353.358000",
        "175354.400000",
        "175355.338000",
        "175356.361000",
        "175357.358000",
        "175358.349000",
        "175359.375000",
        "175400.357000",
        "175401.349000",
        "175402.360000",
        "175403.365000",
        "175404.341000",
        "175405.360000",
        "175406.356000",
        "175407.379000",
        "175408.375000",
        "175409.393000",
        "175410.370000",
        "175411.349000",
        "175412.387000"
      ],
      "InstanceCreationTime": [
        "174925.505000",
        "174926.388000",
        "174927.362000",
        "174928.369000",
        "174929.375000",
        "174930.363000",
        "174931.376000",
        "174932.363000",
        "174933.401000",
        "174934.378000",
        "174935.374000",
        "174936.360000",
        "174937.372000",
        "174938.353000",
        "174939.393000",
        "174940.420000",
        "174941.346000",
        "174942.378000",
        "174943.385000",
        "174944.382000",
        "174945.393000",
        "174946.387000",
        "174947.360000",
        "174948.359000",
        "174949.330000",
        "174950.372000",
        "174951.325000",
        "174952.353000",
        "174953.351000",
        "174954.365000",
        "174955.369000",
        "174956.361000",
        "174957.353000",
        "174958.379000",
        "174959.364000",
        "175000.344000",
        "175001.342000",
        "175002.348000",
        "175003.343000",
        "175004.354000",
        "175005.369000",
        "175006.351000",
        "175007.357000",
        "175008.381000",
        "175009.363000",
        "175010.357000",
        "175011.363000",
        "175012.359000",
        "175013.350000",
        "175014.363000",
        "175015.360000",
        "175016.369000",
        "175017.385000",
        "175018.356000",
        "175019.366000",
        "175020.372000",
        "175021.354000",
        "175022.352000",
        "175023.353000",
        "175024.340000",
        "175025.337000",
        "175026.396000",
        "175027.362000",
        "175028.367000",
        "175029.407000",
        "175030.359000",
        "175031.341000",
        "175032.348000",
        "175033.346000",
        "175034.356000",
        "175035.353000",
        "175036.357000",
        "175037.404000",
        "175038.335000",
        "175039.353000",
        "175040.338000",
        "175041.365000",
        "175042.351000",
        "175043.364000",
        "175044.365000",
        "175045.364000",
        "175046.381000",
        "175047.353000",
        "175048.378000",
        "175049.345000",
        "175050.360000",
        "175051.356000",
        "175052.368000",
        "175053.343000",
        "175054.366000",
        "175055.359000",
        "175056.367000",
        "175057.357000",
        "175058.360000",
        "175059.375000",
        "175100.339000",
        "175101.311000",
        "175102.351000",
        "175103.354000",
        "175104.368000",
        "175105.330000",
        "175106.386000",
        "175107.405000",
        "175108.374000",
        "175109.375000",
        "175110.384000",
        "175111.352000",
        "175112.374000",
        "175113.366000",
        "175114.369000",
        "175115.370000",
        "175116.372000",
        "175117.394000",
        "175118.352000",
        "175119.362000",
        "175120.372000",
        "175121.378000",
        "175122.375000",
        "175123.361000",
        "175124.384000",
        "175125.345000",
        "175126.363000",
        "175127.382000",
        "175128.373000",
        "175129.384000",
        "175130.369000",
        "175131.377000",
        "175132.364000",
        "175133.371000",
        "175134.365000",
        "175135.367000",
        "175136.381000",
        "175137.360000",
        "175138.351000",
        "175139.348000",
        "175140.376000",
        "175141.363000",
        "175142.418000",
        "175143.367000",
        "175144.369000",
        "175145.359000",
        "175146.349000",
        "175147.365000",
        "175148.380000",
        "175149.371000",
        "175150.364000",
        "175151.348000",
        "175152.383000",
        "175153.371000",
        "175154.365000",
        "175155.361000",
        "175156.381000",
        "175157.352000",
        "175158.397000",
        "175159.369000",
        "175200.359000",
        "175201.370000",
        "175202.363000",
        "175203.372000",
        "175204.374000",
        "175205.364000",
        "175206.370000",
        "175207.355000",
        "175208.355000",
        "175209.342000",
        "175210.367000",
        "175211.363000",
        "175212.374000",
        "175213.351000",
        "175214.350000",
        "175215.368000",
        "175216.366000",
        "175217.349000",
        "175218.384000",
        "175219.356000",
        "175220.376000",
        "175221.349000",
        "175222.391000",
        "175223.356000",
        "175224.363000",
        "175225.360000",
        "175226.352000",
        "175227.357000",
        "175228.361000",
        "175229.380000",
        "175230.340000",
        "175231.391000",
        "175232.364000",
        "175233.354000",
        "175234.364000",
        "175235.340000",
        "175236.349000",
        "175237.361000",
        "175238.357000",
        "175239.348000",
        "175240.352000",
        "175241.349000",
        "175242.340000",
        "175243.367000",
        "175244.353000",
        "175245.359000",
        "175246.362000",
        "175247.373000",
        "175248.369000",
        "175249.361000",
        "175250.397000",
        "175251.343000",
        "175252.364000",
        "175253.358000",
        "175254.355000",
        "175255.347000",
        "175256.337000",
        "175257.364000",
        "175258.385000",
        "175259.369000",
        "175300.369000",
        "175301.366000",
        "175302.358000",
        "175303.372000",
        "175304.385000",
        "175305.357000",
        "175306.352000",
        "175307.361000",
        "175308.346000",
        "175309.351000",
        "175310.346000",
        "175311.342000",
        "175312.396000",
        "175313.371000",
        "175314.360000",
        "175315.394000",
        "175316.366000",
        "175317.342000",
        "175318.374000",
        "175319.349000",
        "175320.346000",
        "175321.364000",
        "175322.355000",
        "175323.361000",
        "175324.334000",
        "175325.352000",
        "175326.372000",
        "175327.337000",
        "175328.372000",
        "175329.372000",
        "175330.384000",
        "175331.367000",
        "175332.364000",
        "175333.357000",
        "175334.337000",
        "175335.357000",
        "175336.346000",
        "175337.341000",
        "175338.397000",
        "175339.363000",
        "175340.361000",
        "175341.362000",
        "175342.345000",
        "175343.368000",
        "175344.346000",
        "175345.340000",
        "175346.398000",
        "175347.355000",
        "175348.374000",
        "175349.368000",
        "175350.349000",
        "175351.374000",
        "175352.342000",
        "175353.358000",
        "175354.400000",
        "175355.338000",
        "175356.361000",
        "175357.358000",
        "175358.349000",
        "175359.375000",
        "175400.357000",
        "175401.349000",
        "175402.360000",
        "175403.365000",
        "175404.341000",
        "175405.360000",
        "175406.356000",
        "175407.379000",
        "175408.375000",
        "175409.393000",
        "175410.370000",
        "175411.349000",
        "175412.387000"
      ],
      "InstanceNumber": [
        1,
        2,
        3,
        4,
        5,
        6,
        7,
        8,
        9,
        10,
        11,
        12,
        13,
        14,
        15,
        16,
        17,
        18,
        19,
        20,
        21,
        22,
        23,
        24,
        25,
        26,
        27,
        28,
        29,
        30,
        31,
        32,
        33,
        34,
        35,
        36,
        37,
        38,
        39,
        40,
        41,
        42,
        43,
        44,
        45,
        46,
        47,
        48,
        49,
        50,
        51,
        52,
        53,
        54,
        55,
        56,
        57,
        58,
        59,
        60,
        61,
        62,
        63,
        64,
        65,
        66,
        67,
        68,
        69,
        70,
        71,
        72,
        73,
        74,
        75,
        76,
        77,
        78,
        79,
        80,
        81,
        82,
        83,
        84,
        85,
        86,
        87,
        88,
        89,
        90,
        91,
        92,
        93,
        94,
        95,
        96,
        97,
        98,
        99,
        100,
        101,
        102,
        103,
        104,
        105,
        106,
        107,
        108,
        109,
        110,
        111,
        112,
        113,
        114,
        115,
        116,
        117,
        118,
        119,
        120,
        121,
        122,
        123,
        124,
        125,
        126,
        127,
        128,
        129,
        130,
        131,
        132,
        133,
        134,
        135,
        136,
        137,
        138,
        139,
        140,
        141,
        142,
        143,
        144,
        145,
        146,
        147,
        148,
        149,
        150,
        151,
        152,
        153,
        154,
        155,
        156,
        157,
