{
  "AcquisitionMatrixPE": 96,
  "AcquisitionNumber": 1,
  "BandwidthPerPixelPhaseEncode": 18.939,
  "BaseResolution": 96,
  "BodyPartExamined": "BRAIN",
  "ConsistencyInfo": "N4_VE11C_LATEST_20160120",
  "ConversionSoftware": "dcm2niix",
  "ConversionSoftwareVersion": "v1.0.20171215 (OpenJPEG build) GCC6.3.0",
  "DerivedVendorReportedEchoSpacing": 0.000550011,
  "DeviceSerialNumber": "66112",
  "DwellTime": 2.2e-06,
  "EchoTime": 0.033,
  "EchoTrainLength": 96,
  "EffectiveEchoSpacing": 0.000550011,
  "FlipAngle": 59,
  "ImageOrientationPatientDICOM": [
    0.998681,
    0.0506905,
    0.00811664,
    -0.0502415,
    0.997569,
    -0.0482932
  ],
  "ImageType": [
    "ORIGINAL",
    "PRIMARY",
    "FMRI",
    "NONE",
    "ND",
    "NORM",
    "MOSAIC"
  ],
  "InPlanePhaseEncodingDirectionDICOM": "COL",
  "InstitutionAddress": "Maynard_3_Hanover_NH_US_03755",
  "InstitutionName": "Dartmouth_College_-_PBS",
  "InstitutionalDepartmentName": "Department",
  "MRAcquisitionType": "2D",
  "MagneticFieldStrength": 3,
  "Manufacturer": "Siemens",
  "ManufacturersModelName": "Prisma",
  "Modality": "MR",
  "MultibandAccelerationFactor": 4,
  "PatientPosition": "HFS",
  "PercentPhaseFOV": 100,
  "PhaseEncodingDirection": "j-",
  "PhaseEncodingSteps": 96,
  "PhaseResolution": 1,
  "PixelBandwidth": 2365,
  "ProcedureStepDescription": "Gobbini_Matteo_1038_hyperface",
  "ProtocolName": "func_run-06_task-visualmemory",
  "PulseSequenceDetails": "%SiemensSeq%_ep2d_bold",
  "ReceiveCoilActiveElements": "HEA;HEP",
  "ReceiveCoilName": "Head_32",
  "ReconMatrixPE": 96,
  "RepetitionTime": 1,
  "SAR": 0.0456811,
  "ScanOptions": "FS",
  "ScanningSequence": "EP",
  "SequenceName": "_epfid2d1_96",
  "SequenceVariant": "SK",
  "SeriesDescription": "func_run-06_task-visualmemory",
  "SeriesNumber": 43,
  "ShimSetting": [
    4151,
    -7722,
    -7310,
    682,
    -45,
    -114,
    46,
    109
  ],
  "SliceThickness": 2.5,
  "SliceTiming": [
    0.735,
    0,
    0.49,
    0.0825,
    0.5725,
    0.165,
    0.655,
    0.3275,
    0.8175,
    0.41,
    0.9,
    0.245,
    0.735,
    0,
    0.49,
    0.0825,
    0.5725,
    0.165,
    0.655,
    0.3275,
    0.8175,
    0.41,
    0.9,
    0.245,
    0.735,
    0,
    0.49,
    0.0825,
    0.5725,
    0.165,
    0.655,
    0.3275,
    0.8175,
    0.41,
    0.9,
    0.245,
    0.735,
    0,
    0.49,
    0.0825,
    0.5725,
    0.165,
    0.655,
    0.3275,
    0.8175,
    0.41,
    0.9,
    0.245
  ],
  "SoftwareVersions": "syngo_MR_E11",
  "SpacingBetweenSlices": 2.5,
  "StationName": "AWP66112",
  "TotalReadoutTime": 0.0522511,
  "TxRefAmp": 229.228,
  "time": {
    "samples": {
      "AcquisitionNumber": [
        1,
        2,
        3,
        4,
        5,
        6,
        7,
        8,
        9,
        10,
        11,
        12,
        13,
        14,
        15,
        16,
        17,
        18,
        19,
        20,
        21,
        22,
        23,
        24,
        25,
        26,
        27,
        28,
        29,
        30,
        31,
        32,
        33,
        34,
        35,
        36,
        37,
        38,
        39,
        40,
        41,
        42,
        43,
        44,
        45,
        46,
        47,
        48,
        49,
        50,
        51,
        52,
        53,
        54,
        55,
        56,
        57,
        58,
        59,
        60,
        61,
        62,
        63,
        64,
        65,
        66,
        67,
        68,
        69,
        70,
        71,
        72,
        73,
        74,
        75,
        76,
        77,
        78,
        79,
        80,
        81,
        82,
        83,
        84,
        85,
        86,
        87,
        88,
        89,
        90,
        91,
        92,
        93,
        94,
        95,
        96,
        97,
        98,
        99,
        100,
        101,
        102,
        103,
        104,
        105,
        106,
        107,
        108,
        109,
        110,
        111,
        112,
        113,
        114,
        115,
        116,
        117,
        118,
        119,
        120,
        121,
        122,
        123,
        124,
        125,
        126,
        127,
        128,
        129,
        130,
        131,
        132,
        133,
        134,
        135,
        136,
        137,
        138,
        139,
        140,
        141,
        142,
        143,
        144,
        145,
        146,
        147,
        148,
        149,
        150,
        151,
        152,
        153,
        154,
        155,
        156,
        157,
        158,
        159,
        160,
        161,
        162,
        163,
        164,
        165,
        166,
        167,
        168,
        169,
        170,
        171,
        172,
        173,
        174,
        175,
        176,
        177,
        178,
        179,
        180,
        181,
        182,
        183,
        184,
        185,
        186,
        187,
        188,
        189,
        190,
        191,
        192,
        193,
        194,
        195,
        196,
        197,
        198,
        199,
        200,
        201,
        202,
        203,
        204,
        205,
        206,
        207,
        208,
        209,
        210,
        211,
        212,
        213,
        214,
        215,
        216,
        217,
        218,
        219,
        220,
        221,
        222,
        223,
        224,
        225,
        226,
        227,
        228,
        229,
        230,
        231,
        232,
        233,
        234,
        235,
        236,
        237,
        238,
        239,
        240,
        241,
        242,
        243,
        244,
        245,
        246,
        247,
        248,
        249,
        250,
        251,
        252,
        253,
        254,
        255,
        256,
        257,
        258,
        259,
        260,
        261,
        262,
        263,
        264,
        265,
        266,
        267,
        268,
        269,
        270,
        271,
        272,
        273,
        274,
        275,
        276,
        277,
        278,
        279,
        280,
        281,
        282,
        283,
        284,
        285,
        286,
        287,
        288
      ],
      "AcquisitionTime": [
        "133235.052500",
        "133236.052500",
        "133237.052500",
        "133238.052500",
        "133239.052500",
        "133240.052500",
        "133241.052500",
        "133242.052500",
        "133243.052500",
        "133244.052500",
        "133245.052500",
        "133246.052500",
        "133247.052500",
        "133248.052500",
        "133249.052500",
        "133250.052500",
        "133251.052500",
        "133252.052500",
        "133253.052500",
        "133254.052500",
        "133255.052500",
        "133256.052500",
        "133257.052500",
        "133258.052500",
        "133259.052500",
        "133300.052500",
        "133301.052500",
        "133302.052500",
        "133303.052500",
        "133304.052500",
        "133305.052500",
        "133306.052500",
        "133307.052500",
        "133308.052500",
        "133309.052500",
        "133310.052500",
        "133311.052500",
        "133312.052500",
        "133313.052500",
        "133314.052500",
        "133315.052500",
        "133316.052500",
        "133317.052500",
        "133318.052500",
        "133319.052500",
        "133320.052500",
        "133321.052500",
        "133322.052500",
        "133323.052500",
        "133324.052500",
        "133325.052500",
        "133326.052500",
        "133327.052500",
        "133328.052500",
        "133329.052500",
        "133330.052500",
        "133331.052500",
        "133332.052500",
        "133333.052500",
        "133334.052500",
        "133335.052500",
        "133336.052500",
        "133337.052500",
        "133338.052500",
        "133339.052500",
        "133340.052500",
        "133341.052500",
        "133342.052500",
        "133343.052500",
        "133344.052500",
        "133345.052500",
        "133346.052500",
        "133347.052500",
        "133348.052500",
        "133349.052500",
        "133350.052500",
        "133351.052500",
        "133352.052500",
        "133353.052500",
        "133354.052500",
        "133355.052500",
        "133356.052500",
        "133357.052500",
        "133358.052500",
        "133359.052500",
        "133400.052500",
        "133401.052500",
        "133402.052500",
        "133403.052500",
        "133404.052500",
        "133405.052500",
        "133406.052500",
        "133407.052500",
        "133408.052500",
        "133409.052500",
        "133410.052500",
        "133411.052500",
        "133412.052500",
        "133413.052500",
        "133414.052500",
        "133415.052500",
        "133416.052500",
        "133417.052500",
        "133418.052500",
        "133419.052500",
        "133420.052500",
        "133421.052500",
        "133422.052500",
        "133423.052500",
        "133424.052500",
        "133425.052500",
        "133426.052500",
        "133427.052500",
        "133428.052500",
        "133429.052500",
        "133430.052500",
        "133431.052500",
        "133432.052500",
        "133433.052500",
        "133434.052500",
        "133435.052500",
        "133436.052500",
        "133437.052500",
        "133438.052500",
        "133439.052500",
        "133440.052500",
        "133441.052500",
        "133442.052500",
        "133443.052500",
        "133444.052500",
        "133445.052500",
        "133446.052500",
        "133447.052500",
        "133448.052500",
        "133449.052500",
        "133450.052500",
        "133451.052500",
        "133452.052500",
        "133453.052500",
        "133454.052500",
        "133455.052500",
        "133456.052500",
        "133457.052500",
        "133458.052500",
        "133459.052500",
        "133500.052500",
        "133501.052500",
        "133502.052500",
        "133503.052500",
        "133504.052500",
        "133505.052500",
        "133506.052500",
        "133507.052500",
        "133508.052500",
        "133509.052500",
        "133510.052500",
        "133511.052500",
        "133512.052500",
        "133513.052500",
        "133514.052500",
        "133515.052500",
        "133516.052500",
        "133517.052500",
        "133518.052500",
        "133519.052500",
        "133520.052500",
        "133521.052500",
        "133522.052500",
        "133523.052500",
        "133524.052500",
        "133525.052500",
        "133526.052500",
        "133527.052500",
        "133528.052500",
        "133529.052500",
        "133530.052500",
        "133531.052500",
        "133532.052500",
        "133533.052500",
        "133534.052500",
        "133535.052500",
        "133536.052500",
        "133537.052500",
        "133538.052500",
        "133539.052500",
        "133540.052500",
        "133541.052500",
        "133542.052500",
        "133543.052500",
        "133544.052500",
        "133545.052500",
        "133546.052500",
        "133547.052500",
        "133548.052500",
        "133549.052500",
        "133550.052500",
        "133551.052500",
        "133552.052500",
        "133553.052500",
        "133554.052500",
        "133555.052500",
        "133556.052500",
        "133557.052500",
        "133558.052500",
        "133559.052500",
        "133600.052500",
        "133601.052500",
        "133602.052500",
        "133603.052500",
        "133604.052500",
        "133605.052500",
        "133606.052500",
        "133607.052500",
        "133608.052500",
        "133609.052500",
        "133610.052500",
        "133611.052500",
        "133612.052500",
        "133613.052500",
        "133614.052500",
        "133615.052500",
        "133616.052500",
        "133617.052500",
        "133618.052500",
        "133619.052500",
        "133620.052500",
        "133621.052500",
        "133622.052500",
        "133623.052500",
        "133624.052500",
        "133625.052500",
        "133626.052500",
        "133627.052500",
        "133628.052500",
        "133629.052500",
        "133630.052500",
        "133631.052500",
        "133632.052500",
        "133633.052500",
        "133634.052500",
        "133635.052500",
        "133636.052500",
        "133637.052500",
        "133638.052500",
        "133639.052500",
        "133640.052500",
        "133641.052500",
        "133642.052500",
        "133643.052500",
        "133644.052500",
        "133645.052500",
        "133646.052500",
        "133647.052500",
        "133648.052500",
        "133649.052500",
        "133650.052500",
        "133651.052500",
        "133652.052500",
        "133653.052500",
        "133654.052500",
        "133655.052500",
        "133656.052500",
        "133657.052500",
        "133658.052500",
        "133659.052500",
        "133700.052500",
        "133701.052500",
        "133702.052500",
        "133703.052500",
        "133704.052500",
        "133705.052500",
        "133706.052500",
        "133707.052500",
        "133708.052500",
        "133709.052500",
        "133710.052500",
        "133711.052500",
        "133712.052500",
        "133713.052500",
        "133714.052500",
        "133715.052500",
        "133716.052500",
        "133717.052500",
        "133718.052500",
        "133719.052500",
        "133720.052500",
        "133721.052500",
        "133722.052500"
      ],
      "ContentTime": [
        "133235.935000",
        "133236.803000",
        "133237.784000",
        "133238.775000",
        "133239.791000",
        "133240.772000",
        "133241.789000",
        "133242.797000",
        "133243.807000",
        "133244.789000",
        "133245.787000",
        "133246.769000",
        "133247.764000",
        "133248.784000",
        "133249.777000",
        "133250.783000",
        "133251.776000",
        "133252.800000",
        "133253.788000",
        "133254.781000",
        "133255.785000",
        "133256.786000",
        "133257.791000",
        "133258.786000",
        "133259.817000",
        "133300.820000",
        "133301.797000",
        "133302.771000",
        "133303.792000",
        "133304.787000",
        "133305.809000",
        "133306.839000",
        "133307.784000",
        "133308.780000",
        "133309.806000",
        "133310.853000",
        "133311.763000",
        "133312.787000",
        "133313.767000",
        "133314.775000",
        "133315.801000",
        "133316.822000",
        "133317.799000",
        "133318.783000",
        "133319.791000",
        "133320.773000",
        "133321.838000",
        "133322.786000",
        "133323.798000",
        "133324.796000",
        "133325.764000",
        "133326.778000",
        "133327.769000",
        "133328.813000",
        "133329.766000",
        "133330.776000",
        "133331.789000",
        "133332.766000",
        "133333.794000",
        "133334.785000",
        "133335.787000",
        "133336.780000",
        "133337.782000",
        "133338.776000",
        "133339.737000",
        "133340.790000",
        "133341.797000",
        "133342.788000",
        "133343.773000",
        "133344.780000",
        "133345.803000",
        "133346.828000",
        "133347.820000",
        "133348.809000",
        "133349.771000",
        "133350.747000",
        "133351.818000",
        "133352.766000",
        "133353.812000",
        "133354.823000",
        "133355.786000",
        "133356.782000",
        "133357.776000",
        "133358.797000",
        "133359.797000",
        "133400.794000",
        "133401.780000",
        "133402.769000",
        "133403.758000",
        "133404.777000",
        "133405.781000",
        "133406.820000",
        "133407.872000",
        "133408.785000",
        "133409.800000",
        "133410.820000",
        "133411.862000",
        "133412.828000",
        "133413.773000",
        "133414.770000",
        "133415.813000",
        "133416.774000",
        "133417.778000",
        "133418.843000",
        "133419.772000",
        "133420.771000",
        "133421.792000",
        "133422.782000",
        "133423.797000",
        "133424.769000",
        "133425.823000",
        "133426.784000",
        "133427.790000",
        "133428.781000",
        "133429.784000",
        "133430.774000",
        "133431.777000",
        "133432.786000",
        "133433.743000",
        "133434.788000",
        "133435.778000",
        "133436.811000",
        "133437.768000",
        "133438.811000",
        "133439.801000",
        "133440.889000",
        "133441.790000",
        "133442.803000",
        "133443.776000",
        "133444.769000",
        "133445.777000",
        "133446.765000",
        "133447.773000",
        "133448.787000",
        "133449.788000",
        "133450.799000",
        "133451.792000",
        "133452.777000",
        "133453.767000",
        "133454.786000",
        "133455.808000",
        "133457.060000",
        "133457.817000",
        "133458.851000",
        "133459.810000",
        "133500.773000",
        "133501.780000",
        "133502.783000",
        "133503.773000",
        "133504.779000",
        "133505.785000",
        "133506.767000",
        "133507.774000",
        "133508.788000",
        "133509.804000",
        "133510.778000",
        "133511.784000",
        "133512.825000",
        "133513.788000",
        "133514.798000",
        "133515.782000",
        "133516.757000",
        "133517.808000",
        "133518.825000",
        "133519.785000",
        "133520.773000",
        "133521.781000",
        "133522.763000",
        "133523.770000",
        "133524.815000",
        "133525.783000",
        "133526.810000",
        "133527.743000",
        "133528.840000",
        "133529.814000",
        "133530.779000",
        "133531.789000",
        "133532.831000",
        "133533.783000",
        "133534.782000",
        "133535.787000",
        "133536.787000",
        "133537.805000",
        "133538.788000",
        "133539.786000",
        "133540.819000",
        "133541.785000",
        "133542.782000",
        "133543.813000",
        "133544.750000",
        "133545.765000",
        "133546.871000",
        "133547.779000",
        "133548.800000",
        "133549.800000",
        "133550.827000",
        "133551.779000",
        "133552.834000",
        "133553.813000",
        "133554.885000",
        "133555.839000",
        "133556.773000",
        "133557.776000",
        "133558.789000",
        "133559.793000",
        "133600.807000",
        "133601.772000",
        "133602.834000",
        "133603.786000",
        "133604.789000",
        "133605.823000",
        "133606.770000",
        "133607.775000",
        "133608.792000",
        "133609.763000",
        "133610.777000",
        "133611.775000",
        "133612.778000",
        "133613.754000",
        "133614.792000",
        "133615.776000",
        "133616.775000",
        "133617.802000",
        "133618.815000",
        "133619.793000",
        "133620.765000",
        "133621.770000",
        "133622.790000",
        "133623.806000",
        "133624.769000",
        "133625.767000",
        "133626.772000",
        "133627.794000",
        "133628.770000",
        "133629.829000",
        "133630.827000",
        "133631.799000",
        "133632.829000",
        "133633.831000",
        "133634.768000",
        "133635.780000",
        "133636.754000",
        "133637.780000",
        "133638.803000",
        "133639.785000",
        "133640.769000",
        "133641.802000",
        "133642.793000",
        "133643.764000",
        "133644.760000",
        "133645.782000",
        "133646.760000",
        "133647.790000",
        "133648.757000",
        "133649.795000",
        "133650.763000",
        "133651.765000",
        "133652.788000",
        "133653.776000",
        "133654.845000",
        "133655.776000",
        "133656.774000",
        "133657.775000",
        "133658.820000",
        "133659.775000",
        "133700.760000",
        "133701.800000",
        "133702.760000",
        "133703.775000",
        "133704.776000",
        "133705.801000",
        "133706.824000",
        "133707.778000",
        "133708.756000",
        "133709.774000",
        "133710.850000",
        "133711.787000",
        "133712.787000",
        "133713.825000",
        "133714.800000",
        "133715.795000",
        "133716.768000",
        "133717.773000",
        "133718.795000",
        "133719.805000",
        "133720.798000",
        "133721.772000",
        "133722.844000"
      ],
      "InstanceCreationTime": [
        "133235.935000",
        "133236.803000",
        "133237.784000",
        "133238.775000",
        "133239.791000",
        "133240.772000",
        "133241.789000",
        "133242.797000",
        "133243.807000",
        "133244.789000",
        "133245.787000",
        "133246.769000",
        "133247.764000",
        "133248.784000",
        "133249.777000",
        "133250.783000",
        "133251.776000",
        "133252.800000",
        "133253.788000",
        "133254.781000",
        "133255.785000",
        "133256.786000",
        "133257.791000",
        "133258.786000",
        "133259.817000",
        "133300.820000",
        "133301.797000",
        "133302.771000",
        "133303.792000",
        "133304.787000",
        "133305.809000",
        "133306.839000",
        "133307.784000",
        "133308.780000",
        "133309.806000",
        "133310.853000",
        "133311.763000",
        "133312.787000",
        "133313.767000",
        "133314.775000",
        "133315.801000",
        "133316.822000",
        "133317.799000",
        "133318.783000",
        "133319.791000",
        "133320.773000",
        "133321.838000",
        "133322.786000",
        "133323.798000",
        "133324.796000",
        "133325.764000",
        "133326.778000",
        "133327.769000",
        "133328.813000",
        "133329.766000",
        "133330.776000",
        "133331.789000",
        "133332.766000",
        "133333.794000",
        "133334.785000",
        "133335.787000",
        "133336.780000",
        "133337.782000",
        "133338.776000",
        "133339.737000",
        "133340.790000",
        "133341.797000",
        "133342.788000",
        "133343.773000",
        "133344.780000",
        "133345.803000",
        "133346.828000",
        "133347.820000",
        "133348.809000",
        "133349.771000",
        "133350.747000",
        "133351.818000",
        "133352.766000",
        "133353.812000",
        "133354.823000",
        "133355.786000",
        "133356.782000",
        "133357.776000",
        "133358.797000",
        "133359.797000",
        "133400.794000",
        "133401.780000",
        "133402.769000",
        "133403.758000",
        "133404.777000",
        "133405.781000",
        "133406.820000",
        "133407.872000",
        "133408.785000",
        "133409.800000",
        "133410.820000",
        "133411.862000",
        "133412.828000",
        "133413.773000",
        "133414.770000",
        "133415.813000",
        "133416.774000",
        "133417.778000",
        "133418.843000",
        "133419.772000",
        "133420.771000",
        "133421.792000",
        "133422.782000",
        "133423.797000",
        "133424.769000",
        "133425.823000",
        "133426.784000",
        "133427.790000",
        "133428.781000",
        "133429.784000",
        "133430.774000",
        "133431.777000",
        "133432.786000",
        "133433.743000",
        "133434.788000",
        "133435.778000",
        "133436.811000",
        "133437.768000",
        "133438.811000",
        "133439.801000",
        "133440.889000",
        "133441.790000",
        "133442.803000",
        "133443.776000",
        "133444.769000",
        "133445.777000",
        "133446.765000",
        "133447.773000",
        "133448.787000",
        "133449.788000",
        "133450.799000",
        "133451.792000",
        "133452.777000",
        "133453.767000",
        "133454.786000",
        "133455.808000",
        "133457.060000",
        "133457.817000",
        "133458.851000",
        "133459.810000",
        "133500.773000",
        "133501.780000",
        "133502.783000",
        "133503.773000",
        "133504.779000",
        "133505.785000",
        "133506.767000",
        "133507.774000",
        "133508.788000",
        "133509.804000",
        "133510.778000",
        "133511.784000",
        "133512.825000",
        "133513.788000",
        "133514.798000",
        "133515.782000",
        "133516.757000",
        "133517.808000",
        "133518.825000",
        "133519.785000",
        "133520.773000",
        "133521.781000",
        "133522.763000",
        "133523.770000",
        "133524.815000",
        "133525.783000",
        "133526.810000",
        "133527.743000",
        "133528.840000",
        "133529.814000",
        "133530.779000",
        "133531.789000",
        "133532.831000",
        "133533.783000",
        "133534.782000",
        "133535.787000",
        "133536.787000",
        "133537.805000",
        "133538.788000",
        "133539.786000",
        "133540.819000",
        "133541.785000",
        "133542.782000",
        "133543.813000",
        "133544.750000",
        "133545.765000",
        "133546.871000",
        "133547.779000",
        "133548.800000",
        "133549.800000",
        "133550.827000",
        "133551.779000",
        "133552.834000",
        "133553.813000",
        "133554.885000",
        "133555.839000",
        "133556.773000",
        "133557.776000",
        "133558.789000",
        "133559.793000",
        "133600.807000",
        "133601.772000",
        "133602.834000",
        "133603.786000",
        "133604.789000",
        "133605.823000",
        "133606.770000",
        "133607.775000",
        "133608.792000",
        "133609.763000",
        "133610.777000",
        "133611.775000",
        "133612.778000",
        "133613.754000",
        "133614.792000",
        "133615.776000",
        "133616.775000",
        "133617.802000",
        "133618.815000",
        "133619.793000",
        "133620.765000",
        "133621.770000",
        "133622.790000",
        "133623.806000",
        "133624.769000",
        "133625.767000",
        "133626.772000",
        "133627.794000",
        "133628.770000",
        "133629.829000",
        "133630.827000",
        "133631.799000",
        "133632.829000",
        "133633.831000",
        "133634.768000",
        "133635.780000",
        "133636.754000",
        "133637.780000",
        "133638.803000",
        "133639.785000",
        "133640.769000",
        "133641.802000",
        "133642.793000",
        "133643.764000",
        "133644.760000",
        "133645.782000",
        "133646.760000",
        "133647.790000",
        "133648.757000",
        "133649.795000",
        "133650.763000",
        "133651.765000",
        "133652.788000",
        "133653.776000",
        "133654.845000",
        "133655.776000",
        "133656.774000",
        "133657.775000",
        "133658.820000",
        "133659.775000",
        "133700.760000",
        "133701.800000",
        "133702.760000",
        "133703.775000",
        "133704.776000",
        "133705.801000",
        "133706.824000",
        "133707.778000",
        "133708.756000",
        "133709.774000",
        "133710.850000",
        "133711.787000",
        "133712.787000",
        "133713.825000",
        "133714.800000",
        "133715.795000",
        "133716.768000",
        "133717.773000",
        "133718.795000",
        "133719.805000",
        "133720.798000",
        "133721.772000",
        "133722.844000"
      ],
      "InstanceNumber": [
        1,
        2,
        3,
        4,
        5,
        6,
        7,
        8,
        9,
        10,
        11,
        12,
        13,
        14,
        15,
        16,
        17,
        18,
        19,
        20,
        21,
        22,
        23,
        24,
        25,
        26,
        27,
        28,
        29,
        30,
        31,
        32,
        33,
        34,
        35,
        36,
        37,
        38,
        39,
        40,
        41,
        42,
        43,
        44,
        45,
        46,
        47,
        48,
        49,
        50,
        51,
        52,
        53,
        54,
        55,
        56,
        57,
        58,
        59,
        60,
        61,
        62,
        63,
        64,
        65,
        66,
        67,
        68,
        69,
        70,
        71,
        72,
        73,
        74,
        75,
        76,
        77,
        78,
        79,
        80,
        81,
        82,
        83,
        84,
        85,
        86,
        87,
        88,
        89,
        90,
        91,
        92,
        93,
        94,
        95,
        96,
        97,
        98,
        99,
        100,
        101,
        102,
        103,
        104,
        105,
        106,
        107,
        108,
        109,
        110,
        111,
        112,
        113,
        114,
        115,
        116,
        117,
        118,
        119,
        120,
        121,
        122,
        123,
        124,
        125,
        126,
        127,
        128,
        129,
        130,
        131,
        132,
        133,
        134,
        135,
        136,
        137,
        138,
        139,
        140,
        141,
        142,
        143,
        144,
        145,
        146,
        147,
        148,
        149,
        150,
        151,
        152,
        153,
        154,
        155,
        156,
        157,
