{
  "AcquisitionMatrixPE": 96,
  "AcquisitionNumber": 1,
  "BandwidthPerPixelPhaseEncode": 18.939,
  "BaseResolution": 96,
  "BodyPartExamined": "BRAIN",
  "ConsistencyInfo": "N4_VE11C_LATEST_20160120",
  "ConversionSoftware": "dcm2niix",
  "ConversionSoftwareVersion": "v1.0.20171215 (OpenJPEG build) GCC6.3.0",
  "DerivedVendorReportedEchoSpacing": 0.000550011,
  "DeviceSerialNumber": "66112",
  "DwellTime": 2.2e-06,
  "EchoTime": 0.033,
  "EchoTrainLength": 96,
  "EffectiveEchoSpacing": 0.000550011,
  "FlipAngle": 59,
  "ImageOrientationPatientDICOM": [
    0.998681,
    0.0506905,
    0.00811664,
    -0.0502415,
    0.997569,
    -0.0482932
  ],
  "ImageType": [
    "ORIGINAL",
    "PRIMARY",
    "FMRI",
    "NONE",
    "ND",
    "NORM",
    "MOSAIC"
  ],
  "InPlanePhaseEncodingDirectionDICOM": "COL",
  "InstitutionAddress": "Maynard_3_Hanover_NH_US_03755",
  "InstitutionName": "Dartmouth_College_-_PBS",
  "InstitutionalDepartmentName": "Department",
  "MRAcquisitionType": "2D",
  "MagneticFieldStrength": 3,
  "Manufacturer": "Siemens",
  "ManufacturersModelName": "Prisma",
  "Modality": "MR",
  "MultibandAccelerationFactor": 4,
  "PartialFourier": 1,
  "PatientPosition": "HFS",
  "PercentPhaseFOV": 100,
  "PhaseEncodingDirection": "j-",
  "PhaseEncodingSteps": 96,
  "PhaseResolution": 1,
  "PixelBandwidth": 2365,
  "ProcedureStepDescription": "Gobbini_Matteo_1038_hyperface",
  "ProtocolName": "func_run-05_task-localizer",
  "PulseSequenceDetails": "%SiemensSeq%_ep2d_bold",
  "ReceiveCoilActiveElements": "HEA;HEP",
  "ReceiveCoilName": "Head_32",
  "ReconMatrixPE": 96,
  "RepetitionTime": 1,
  "SAR": 0.0455719,
  "ScanOptions": "FS",
  "ScanningSequence": "EP",
  "SequenceName": "_epfid2d1_96",
  "SequenceVariant": "SK",
  "SeriesDescription": "func_run-05_task-localizer",
  "SeriesNumber": 36,
  "ShimSetting": [
    4151,
    -7722,
    -7310,
    682,
    -45,
    -114,
    46,
    109
  ],
  "SliceThickness": 2.5,
  "SliceTiming": [
    0.735,
    0,
    0.49,
    0.0825,
    0.5725,
    0.165,
    0.655,
    0.3275,
    0.8175,
    0.41,
    0.9,
    0.245,
    0.735,
    0,
    0.49,
    0.0825,
    0.5725,
    0.165,
    0.655,
    0.3275,
    0.8175,
    0.41,
    0.9,
    0.245,
    0.735,
    0,
    0.49,
    0.0825,
    0.5725,
    0.165,
    0.655,
    0.3275,
    0.8175,
    0.41,
    0.9,
    0.245,
    0.735,
    0,
    0.49,
    0.0825,
    0.5725,
    0.165,
    0.655,
    0.3275,
    0.8175,
    0.41,
    0.9,
    0.245
  ],
  "SoftwareVersions": "syngo_MR_E11",
  "SpacingBetweenSlices": 2.5,
  "StationName": "AWP66112",
  "TotalReadoutTime": 0.0522511,
  "TxRefAmp": 229.228,
  "time": {
    "samples": {
      "AcquisitionNumber": [
        1,
        2,
        3,
        4,
        5,
        6,
        7,
        8,
        9,
        10,
        11,
        12,
        13,
        14,
        15,
        16,
        17,
        18,
        19,
        20,
        21,
        22,
        23,
        24,
        25,
        26,
        27,
        28,
        29,
        30,
        31,
        32,
        33,
        34,
        35,
        36,
        37,
        38,
        39,
        40,
        41,
        42,
        43,
        44,
        45,
        46,
        47,
        48,
        49,
        50,
        51,
        52,
        53,
        54,
        55,
        56,
        57,
        58,
        59,
        60,
        61,
        62,
        63,
        64,
        65,
        66,
        67,
        68,
        69,
        70,
        71,
        72,
        73,
        74,
        75,
        76,
        77,
        78,
        79,
        80,
        81,
        82,
        83,
        84,
        85,
        86,
        87,
        88,
        89,
        90,
        91,
        92,
        93,
        94,
        95,
        96,
        97,
        98,
        99,
        100,
        101,
        102,
        103,
        104,
        105,
        106,
        107,
        108,
        109,
        110,
        111,
        112,
        113,
        114,
        115,
        116,
        117,
        118,
        119,
        120,
        121,
        122,
        123,
        124,
        125,
        126,
        127,
        128,
        129,
        130,
        131,
        132,
        133,
        134,
        135,
        136,
        137,
        138,
        139,
        140,
        141,
        142,
        143,
        144,
        145,
        146,
        147,
        148,
        149,
        150,
        151,
        152,
        153,
        154,
        155,
        156,
        157,
        158,
        159,
        160,
        161,
        162,
        163,
        164,
        165,
        166,
        167,
        168,
        169,
        170,
        171,
        172,
        173,
        174,
        175,
        176,
        177,
        178,
        179,
        180,
        181,
        182,
        183,
        184,
        185,
        186,
        187,
        188,
        189,
        190,
        191,
        192,
        193,
        194,
        195,
        196,
        197,
        198,
        199,
        200,
        201,
        202,
        203,
        204,
        205,
        206,
        207,
        208,
        209,
        210,
        211,
        212,
        213,
        214,
        215,
        216,
        217,
        218,
        219,
        220,
        221,
        222,
        223,
        224,
        225,
        226,
        227,
        228,
        229,
        230,
        231,
        232,
        233,
        234,
        235,
        236
      ],
      "AcquisitionTime": [
        "132751.620000",
        "132752.620000",
        "132753.620000",
        "132754.620000",
        "132755.620000",
        "132756.620000",
        "132757.620000",
        "132758.620000",
        "132759.620000",
        "132800.620000",
        "132801.620000",
        "132802.620000",
        "132803.620000",
        "132804.620000",
        "132805.620000",
        "132806.620000",
        "132807.620000",
        "132808.620000",
        "132809.620000",
        "132810.620000",
        "132811.620000",
        "132812.620000",
        "132813.620000",
        "132814.620000",
        "132815.620000",
        "132816.620000",
        "132817.620000",
        "132818.620000",
        "132819.620000",
        "132820.620000",
        "132821.620000",
        "132822.620000",
        "132823.620000",
        "132824.620000",
        "132825.620000",
        "132826.620000",
        "132827.620000",
        "132828.620000",
        "132829.620000",
        "132830.620000",
        "132831.620000",
        "132832.620000",
        "132833.620000",
        "132834.620000",
        "132835.620000",
        "132836.620000",
        "132837.620000",
        "132838.620000",
        "132839.620000",
        "132840.620000",
        "132841.620000",
        "132842.620000",
        "132843.620000",
        "132844.620000",
        "132845.620000",
        "132846.620000",
        "132847.620000",
        "132848.620000",
        "132849.620000",
        "132850.620000",
        "132851.620000",
        "132852.620000",
        "132853.620000",
        "132854.620000",
        "132855.620000",
        "132856.620000",
        "132857.620000",
        "132858.620000",
        "132859.620000",
        "132900.620000",
        "132901.620000",
        "132902.620000",
        "132903.620000",
        "132904.620000",
        "132905.620000",
        "132906.620000",
        "132907.620000",
        "132908.620000",
        "132909.620000",
        "132910.620000",
        "132911.620000",
        "132912.620000",
        "132913.620000",
        "132914.620000",
        "132915.620000",
        "132916.620000",
        "132917.620000",
        "132918.620000",
        "132919.620000",
        "132920.620000",
        "132921.620000",
        "132922.620000",
        "132923.620000",
        "132924.620000",
        "132925.620000",
        "132926.620000",
        "132927.620000",
        "132928.620000",
        "132929.620000",
        "132930.620000",
        "132931.620000",
        "132932.620000",
        "132933.620000",
        "132934.620000",
        "132935.620000",
        "132936.620000",
        "132937.620000",
        "132938.620000",
        "132939.620000",
        "132940.620000",
        "132941.620000",
        "132942.620000",
        "132943.620000",
        "132944.620000",
        "132945.620000",
        "132946.620000",
        "132947.620000",
        "132948.620000",
        "132949.620000",
        "132950.620000",
        "132951.620000",
        "132952.620000",
        "132953.620000",
        "132954.620000",
        "132955.620000",
        "132956.620000",
        "132957.620000",
        "132958.620000",
        "132959.620000",
        "133000.620000",
        "133001.620000",
        "133002.620000",
        "133003.620000",
        "133004.620000",
        "133005.620000",
        "133006.620000",
        "133007.620000",
        "133008.620000",
        "133009.620000",
        "133010.620000",
        "133011.620000",
        "133012.620000",
        "133013.620000",
        "133014.620000",
        "133015.620000",
        "133016.620000",
        "133017.620000",
        "133018.620000",
        "133019.620000",
        "133020.620000",
        "133021.620000",
        "133022.620000",
        "133023.620000",
        "133024.620000",
        "133025.620000",
        "133026.620000",
        "133027.620000",
        "133028.620000",
        "133029.620000",
        "133030.620000",
        "133031.620000",
        "133032.620000",
        "133033.620000",
        "133034.620000",
        "133035.620000",
        "133036.620000",
        "133037.620000",
        "133038.620000",
        "133039.620000",
        "133040.620000",
        "133041.620000",
        "133042.620000",
        "133043.620000",
        "133044.620000",
        "133045.620000",
        "133046.620000",
        "133047.620000",
        "133048.620000",
        "133049.620000",
        "133050.620000",
        "133051.620000",
        "133052.620000",
        "133053.620000",
        "133054.620000",
        "133055.620000",
        "133056.620000",
        "133057.620000",
        "133058.620000",
        "133059.620000",
        "133100.620000",
        "133101.620000",
        "133102.620000",
        "133103.620000",
        "133104.620000",
        "133105.620000",
        "133106.620000",
        "133107.620000",
        "133108.620000",
        "133109.620000",
        "133110.620000",
        "133111.620000",
        "133112.620000",
        "133113.620000",
        "133114.620000",
        "133115.620000",
        "133116.620000",
        "133117.620000",
        "133118.620000",
        "133119.620000",
        "133120.620000",
        "133121.620000",
        "133122.620000",
        "133123.620000",
        "133124.620000",
        "133125.620000",
        "133126.620000",
        "133127.620000",
        "133128.620000",
        "133129.620000",
        "133130.620000",
        "133131.620000",
        "133132.620000",
        "133133.620000",
        "133134.620000",
        "133135.620000",
        "133136.620000",
        "133137.620000",
        "133138.620000",
        "133139.620000",
        "133140.620000",
        "133141.620000",
        "133142.620000",
        "133143.620000",
        "133144.620000",
        "133145.620000",
        "133146.620000"
      ],
      "ContentTime": [
        "132752.603000",
        "132753.452000",
        "132754.548000",
        "132755.456000",
        "132756.432000",
        "132757.439000",
        "132758.453000",
        "132759.473000",
        "132800.453000",
        "132801.462000",
        "132802.454000",
        "132803.437000",
        "132804.487000",
        "132805.423000",
        "132806.429000",
        "132807.418000",
        "132808.450000",
        "132809.413000",
        "132810.432000",
        "132811.424000",
        "132812.426000",
        "132813.471000",
        "132814.420000",
        "132815.450000",
        "132816.437000",
        "132817.432000",
        "132818.423000",
        "132819.441000",
        "132820.430000",
        "132821.436000",
        "132822.408000",
        "132823.469000",
        "132824.437000",
        "132825.459000",
        "132826.431000",
        "132827.446000",
        "132828.427000",
        "132829.429000",
        "132830.434000",
        "132831.408000",
        "132832.437000",
        "132833.477000",
        "132834.441000",
        "132835.445000",
        "132836.433000",
        "132837.441000",
        "132838.440000",
        "132839.418000",
        "132840.433000",
        "132841.476000",
        "132842.434000",
        "132843.450000",
        "132844.442000",
        "132845.442000",
        "132846.424000",
        "132847.428000",
        "132848.433000",
        "132849.464000",
        "132850.513000",
        "132851.502000",
        "132852.432000",
        "132853.460000",
        "132854.455000",
        "132855.440000",
        "132856.412000",
        "132857.432000",
        "132858.444000",
        "132859.459000",
        "132900.422000",
        "132901.425000",
        "132902.424000",
        "132903.430000",
        "132904.415000",
        "132905.426000",
        "132906.502000",
        "132907.452000",
        "132908.415000",
        "132909.430000",
        "132910.426000",
        "132911.472000",
        "132912.468000",
        "132913.447000",
        "132914.425000",
        "132915.426000",
        "132916.402000",
        "132917.442000",
        "132918.437000",
        "132919.516000",
        "132920.406000",
        "132921.425000",
        "132922.417000",
        "132923.438000",
        "132924.404000",
        "132925.431000",
        "132926.442000",
        "132927.448000",
        "132928.435000",
        "132929.427000",
        "132930.482000",
        "132931.471000",
        "132932.425000",
        "132933.416000",
        "132934.433000",
        "132935.441000",
        "132936.476000",
        "132937.451000",
        "132938.435000",
        "132939.455000",
        "132940.455000",
        "132941.459000",
        "132942.455000",
        "132943.429000",
        "132944.436000",
        "132945.443000",
        "132946.447000",
        "132947.443000",
        "132948.436000",
        "132949.437000",
        "132950.444000",
        "132951.438000",
        "132952.432000",
        "132953.456000",
        "132954.441000",
        "132955.453000",
        "132956.448000",
        "132957.477000",
        "132958.462000",
        "132959.442000",
        "133000.458000",
        "133001.440000",
        "133002.436000",
        "133003.443000",
        "133004.418000",
        "133005.457000",
        "133006.413000",
        "133007.446000",
        "133008.437000",
        "133009.437000",
        "133010.428000",
        "133011.431000",
        "133012.428000",
        "133013.448000",
        "133014.499000",
        "133015.452000",
        "133016.440000",
        "133017.490000",
        "133018.421000",
        "133019.438000",
        "133020.455000",
        "133021.437000",
        "133022.441000",
        "133023.457000",
        "133024.448000",
        "133025.441000",
        "133026.478000",
        "133027.478000",
        "133028.429000",
        "133029.414000",
        "133030.452000",
        "133031.508000",
        "133032.448000",
        "133033.438000",
        "133034.413000",
        "133035.417000",
        "133036.409000",
        "133037.474000",
        "133038.430000",
        "133039.464000",
        "133040.482000",
        "133041.442000",
        "133042.435000",
        "133043.416000",
        "133044.430000",
        "133045.442000",
        "133046.442000",
        "133047.519000",
        "133048.487000",
        "133049.467000",
        "133050.454000",
        "133051.426000",
        "133052.435000",
        "133053.438000",
        "133054.439000",
        "133055.422000",
        "133056.452000",
        "133057.438000",
        "133058.423000",
        "133059.450000",
        "133100.438000",
        "133101.430000",
        "133102.424000",
        "133103.432000",
        "133104.440000",
        "133105.436000",
        "133106.436000",
        "133107.460000",
        "133108.457000",
        "133109.435000",
        "133110.457000",
        "133111.425000",
        "133112.427000",
        "133113.427000",
        "133114.454000",
        "133115.427000",
        "133116.422000",
        "133117.437000",
        "133118.435000",
        "133119.455000",
        "133120.483000",
        "133121.455000",
        "133122.449000",
        "133123.477000",
        "133124.441000",
        "133125.426000",
        "133126.455000",
        "133127.426000",
        "133128.449000",
        "133129.442000",
        "133130.439000",
        "133131.425000",
        "133132.414000",
        "133133.421000",
        "133134.424000",
        "133135.430000",
        "133136.446000",
        "133137.436000",
        "133138.444000",
        "133139.429000",
        "133140.425000",
        "133141.450000",
        "133142.419000",
        "133143.441000",
        "133144.452000",
        "133145.450000",
        "133146.476000",
        "133147.466000"
      ],
      "InstanceCreationTime": [
        "132752.603000",
        "132753.452000",
        "132754.548000",
        "132755.456000",
        "132756.432000",
        "132757.439000",
        "132758.453000",
        "132759.473000",
        "132800.453000",
        "132801.462000",
        "132802.454000",
        "132803.437000",
        "132804.487000",
        "132805.423000",
        "132806.429000",
        "132807.418000",
        "132808.450000",
        "132809.413000",
        "132810.432000",
        "132811.424000",
        "132812.426000",
        "132813.471000",
        "132814.420000",
        "132815.450000",
        "132816.437000",
        "132817.432000",
        "132818.423000",
        "132819.441000",
        "132820.430000",
        "132821.436000",
        "132822.408000",
        "132823.469000",
        "132824.437000",
        "132825.459000",
        "132826.431000",
        "132827.446000",
        "132828.427000",
        "132829.429000",
        "132830.434000",
        "132831.408000",
        "132832.437000",
        "132833.477000",
        "132834.441000",
        "132835.445000",
        "132836.433000",
        "132837.441000",
        "132838.440000",
        "132839.418000",
        "132840.433000",
        "132841.476000",
        "132842.434000",
        "132843.450000",
        "132844.442000",
        "132845.442000",
        "132846.424000",
        "132847.428000",
        "132848.433000",
        "132849.464000",
        "132850.513000",
        "132851.502000",
        "132852.432000",
        "132853.460000",
        "132854.455000",
        "132855.440000",
        "132856.412000",
        "132857.432000",
        "132858.444000",
        "132859.459000",
        "132900.422000",
        "132901.425000",
        "132902.424000",
        "132903.430000",
        "132904.415000",
        "132905.426000",
        "132906.502000",
        "132907.452000",
        "132908.415000",
        "132909.430000",
        "132910.426000",
        "132911.472000",
        "132912.468000",
        "132913.447000",
        "132914.425000",
        "132915.426000",
        "132916.402000",
        "132917.442000",
        "132918.437000",
        "132919.516000",
        "132920.406000",
        "132921.425000",
        "132922.417000",
        "132923.438000",
        "132924.404000",
        "132925.431000",
        "132926.442000",
        "132927.448000",
        "132928.435000",
        "132929.427000",
        "132930.482000",
        "132931.471000",
        "132932.425000",
        "132933.416000",
        "132934.433000",
        "132935.441000",
        "132936.476000",
        "132937.451000",
        "132938.435000",
        "132939.455000",
        "132940.455000",
        "132941.459000",
        "132942.455000",
        "132943.429000",
        "132944.436000",
        "132945.443000",
        "132946.447000",
        "132947.443000",
        "132948.436000",
        "132949.437000",
        "132950.444000",
        "132951.438000",
        "132952.432000",
        "132953.456000",
        "132954.441000",
        "132955.453000",
        "132956.448000",
        "132957.477000",
        "132958.462000",
        "132959.442000",
        "133000.458000",
        "133001.440000",
        "133002.436000",
        "133003.443000",
        "133004.418000",
        "133005.457000",
        "133006.413000",
        "133007.446000",
        "133008.437000",
        "133009.437000",
        "133010.428000",
        "133011.431000",
        "133012.428000",
        "133013.448000",
        "133014.499000",
        "133015.452000",
        "133016.440000",
        "133017.490000",
        "133018.421000",
        "133019.438000",
        "133020.455000",
        "133021.437000",
        "133022.441000",
        "133023.457000",
        "133024.448000",
        "133025.441000",
        "133026.478000",
        "133027.478000",
        "133028.429000",
        "133029.414000",
        "133030.452000",
        "133031.508000",
        "133032.448000",
        "133033.438000",
        "133034.413000",
        "133035.417000",
        "133036.409000",
        "133037.474000",
        "133038.430000",
        "133039.464000",
        "133040.482000",
        "133041.442000",
        "133042.435000",
        "133043.416000",
        "133044.430000",
        "133045.442000",
        "133046.442000",
        "133047.519000",
        "133048.487000",
        "133049.467000",
        "133050.454000",
        "133051.426000",
        "133052.435000",
        "133053.438000",
        "133054.439000",
        "133055.422000",
        "133056.452000",
        "133057.438000",
        "133058.423000",
        "133059.450000",
        "133100.438000",
        "133101.430000",
        "133102.424000",
        "133103.432000",
        "133104.440000",
        "133105.436000",
        "133106.436000",
        "133107.460000",
        "133108.457000",
        "133109.435000",
        "133110.457000",
        "133111.425000",
        "133112.427000",
        "133113.427000",
        "133114.454000",
        "133115.427000",
        "133116.422000",
        "133117.437000",
        "133118.435000",
        "133119.455000",
        "133120.483000",
        "133121.455000",
        "133122.449000",
        "133123.477000",
        "133124.441000",
        "133125.426000",
        "133126.455000",
        "133127.426000",
        "133128.449000",
        "133129.442000",
        "133130.439000",
        "133131.425000",
        "133132.414000",
        "133133.421000",
        "133134.424000",
        "133135.430000",
        "133136.446000",
        "133137.436000",
        "133138.444000",
        "133139.429000",
        "133140.425000",
        "133141.450000",
        "133142.419000",
        "133143.441000",
        "133144.452000",
        "133145.450000",
        "133146.476000",
        "133147.466000"
      ],
      "InstanceNumber": [
        1,
        2,
        3,
        4,
        5,
        6,
        7,
        8,
        9,
        10,
        11,
        12,
        13,
        14,
        15,
        16,
        17,
        18,
        19,
        20,
        21,
        22,
        23,
        24,
        25,
        26,
        27,
        28,
        29,
        30,
        31,
        32,
        33,
        34,
        35,
        36,
        37,
        38,
        39,
        40,
        41,
        42,
        43,
        44,
        45,
        46,
        47,
        48,
        49,
        50,
        51,
        52,
        53,
        54,
        55,
        56,
        57,
        58,
        59,
        60,
        61,
        62,
        63,
        64,
        65,
        66,
        67,
        68,
        69,
        70,
        71,
        72,
        73,
        74,
        75,
        76,
        77,
        78,
        79,
        80,
        81,
        82,
        83,
        84,
        85,
        86,
        87,
        88,
        89,
        90,
        91,
        92,
        93,
        94,
        95,
        96,
        97,
        98,
        99,
        100,
        101,
        102,
        103,
        104,
        105,
        106,
        107,
        108,
        109,
        110,
        111,
        112,
        113,
        114,
        115,
        116,
        117,
        118,
        119,
        120,
        121,
        122,
        123,
        124,
        125,
        126,
        127,
        128,
        129,
        130,
        131,
        132,
        133,
        134,
        135,
        136,
        137,
        138,
        139,
        140,
        141,
        142,
        143,
        144,
        145,
        146,
        147,
        148,
        149,
        150,
        151,
        152,
        153,
        154,
        155,
        156,
        157,
        158,
        159,
        160,
        161,
        162,
        163,
        164,
        165,
        166,
        167,
        168,
        169,
        170,
        171,
        172,
        173,
        174,
        175,
        176,
        177,
        178,
        179,
        180,
        181,
        182,
        183,
        184,
        185,
        186,
        187,
        188,
        189,
        190,
        191,
        192,
        193,
        194,
        195,
        196,
        197,
        198,
        199,
        200,
        201,
        202,
        203,
        204,
        205,
        206,
        207,
        208,
        209,
        210,
        211,
        212,
        213,
        214,
        215,
        216,
        217,
        218,
        219,
        220,
        221,
        222,
        223,
        224,
        225,
        226,
        227,
        228,
        229,
        230,
        231,
        232,
        233,
        234,
        235,
        236
      ],
      "LargestImagePixelValue": [
        676,
        633,
        624,
        678,
        799,
        705,
        690,
        829,
        634,
        616,
        656,
        635,
        623,
        618,
        629,
        621,
        616,
        690,
        653,
        691,
        726,
        764,
        747,
        772,
        721,
        683,
        638,
        627,
        626,
        623,
        616,
        622,
        616,
        711,
        746,
        754,
        712,
        727,
        812,
        898,
        801,
        835,
        845,
        618,
        622,
        601,
        610,
        613,
        615,
        668,
        711,
        796,
        742,
        704,
        719,
        682,
        681,
        798,
        783,
        724,
        757,
        728,
        595,
        607,
        591,
        602,
        597,
        599,
        659,
        635,
        756,
        719,
        731,
        784,
        854,
        809,
        798,
        758,
        590,
        596,
        593,
        614,
        598,
        596,
        625,
        658,
        766,
        727,
        767,
        803,
        698,
        613,
        607,
        628,
        615,
        645,
        708,
        876,
        716,
        644,
        600,
        679,
        762,
        825,
        672,
        698,
        623,
        627,
        604,
        621,
        609,
        693,
        690,
        773,
        724,
        651,
        626,
        627,
        628,
        618,
        682,
        844,
        998,
        831,
        706,
        611,
        639,
        661,
        639,
        683,
        730,
        585,
        611,
        748,
        689,
        721,
        810,
        730,
        806,
        613,
        609,
        605,
        696,
        872,
        792,
        668,
        697,
        666,
        695,
        705,
        784,
        824,
        875,
        860,
        748,
        617,
        605,
        606,
        604,
        615,
        672,
        674,
        642,
        634,
        664,
        673,
        634,
        676,
        736,
        746,
        904,
        806,
        751,
        595,
        590,
        597,
        590,
        607,
        599,
        660,
        689,
        706,
        856,
        775,
        821,
        714,
        647,
        696,
        611,
        621,
        605,
        616,
        658,
        665,
        712,
        829,
        817,
        770,
        684,
        625,
        621,
        625,
        608,
        611,
        608,
        628,
        656,
        642,
        736,
        824,
        735,
        696,
        625,
        606,
        622,
        629,
        674,
        694,
        692,
        749,
        766,
        788,
        743,
        725,
        643,
        640,
        718,
        711,
        751,
        670,
        744,
        793,
        763,
        713,
        599,
        634
      ],
      "WindowCenter": [
        318,
        316,
        315,
        317,
        318,
        317,
        317,
        318,
        316,
        315,
        316,
        315,
        315,
        315,
        315,
        315,
        316,
        317,
        317,
        317,
        317,
        318,
        318,
        318,
        317,
        316,
        316,
        315,
        315,
        315,
