{
  "AcquisitionMatrixPE": 96,
  "AcquisitionNumber": 1,
  "BandwidthPerPixelPhaseEncode": 18.939,
  "BaseResolution": 96,
  "BodyPartExamined": "BRAIN",
  "ConsistencyInfo": "N4_VE11C_LATEST_20160120",
  "ConversionSoftware": "dcm2niix",
  "ConversionSoftwareVersion": "v1.0.20171215 (OpenJPEG build) GCC6.3.0",
  "DerivedVendorReportedEchoSpacing": 0.000550011,
  "DeviceSerialNumber": "66112",
  "DwellTime": 2.2e-06,
  "EchoTime": 0.033,
  "EchoTrainLength": 96,
  "EffectiveEchoSpacing": 0.000550011,
  "FlipAngle": 59,
  "ImageOrientationPatientDICOM": [
    0.999099,
    0.00120388,
    0.0424178,
    -0.000697488,
    0.999928,
    -0.0119511
  ],
  "ImageType": [
    "ORIGINAL",
    "PRIMARY",
    "FMRI",
    "NONE",
    "ND",
    "NORM",
    "MOSAIC"
  ],
  "InPlanePhaseEncodingDirectionDICOM": "COL",
  "InstitutionAddress": "Maynard_3_Hanover_NH_US_03755",
  "InstitutionName": "Dartmouth_College_-_PBS",
  "InstitutionalDepartmentName": "Department",
  "MRAcquisitionType": "2D",
  "MagneticFieldStrength": 3,
  "Manufacturer": "Siemens",
  "ManufacturersModelName": "Prisma",
  "Modality": "MR",
  "MultibandAccelerationFactor": 4,
  "PatientPosition": "HFS",
  "PercentPhaseFOV": 100,
  "PhaseEncodingDirection": "j-",
  "PhaseEncodingSteps": 96,
  "PhaseResolution": 1,
  "PixelBandwidth": 2365,
  "ProcedureStepDescription": "Gobbini_Matteo_1038_hyperface",
  "ProtocolName": "func_run-03_task-visualmemory",
  "PulseSequenceDetails": "%SiemensSeq%_ep2d_bold",
  "ReceiveCoilActiveElements": "HEA;HEP",
  "ReceiveCoilName": "Head_32",
  "ReconMatrixPE": 96,
  "RepetitionTime": 1,
  "SAR": 0.0411116,
  "ScanOptions": "FS",
  "ScanningSequence": "EP",
  "SequenceName": "_epfid2d1_96",
  "SequenceVariant": "SK",
  "SeriesDescription": "func_run-03_task-visualmemory",
  "SeriesNumber": 22,
  "ShimSetting": [
    4155,
    -7718,
    -7476,
    289,
    -30,
    -12,
    -109,
    70
  ],
  "SliceThickness": 2.5,
  "SliceTiming": [
    0.735,
    0,
    0.49,
    0.0825,
    0.5725,
    0.1625,
    0.6525,
    0.3275,
    0.8175,
    0.4075,
    0.8975,
    0.245,
    0.735,
    0,
    0.49,
    0.0825,
    0.5725,
    0.1625,
    0.6525,
    0.3275,
    0.8175,
    0.4075,
    0.8975,
    0.245,
    0.735,
    0,
    0.49,
    0.0825,
    0.5725,
    0.1625,
    0.6525,
    0.3275,
    0.8175,
    0.4075,
    0.8975,
    0.245,
    0.735,
    0,
    0.49,
    0.0825,
    0.5725,
    0.1625,
    0.6525,
    0.3275,
    0.8175,
    0.4075,
    0.8975,
    0.245
  ],
  "SoftwareVersions": "syngo_MR_E11",
  "SpacingBetweenSlices": 2.5,
  "StationName": "AWP66112",
  "TotalReadoutTime": 0.0522511,
  "TxRefAmp": 229.09,
  "time": {
    "samples": {
      "AcquisitionNumber": [
        1,
        2,
        3,
        4,
        5,
        6,
        7,
        8,
        9,
        10,
        11,
        12,
        13,
        14,
        15,
        16,
        17,
        18,
        19,
        20,
        21,
        22,
        23,
        24,
        25,
        26,
        27,
        28,
        29,
        30,
        31,
        32,
        33,
        34,
        35,
        36,
        37,
        38,
        39,
        40,
        41,
        42,
        43,
        44,
        45,
        46,
        47,
        48,
        49,
        50,
        51,
        52,
        53,
        54,
        55,
        56,
        57,
        58,
        59,
        60,
        61,
        62,
        63,
        64,
        65,
        66,
        67,
        68,
        69,
        70,
        71,
        72,
        73,
        74,
        75,
        76,
        77,
        78,
        79,
        80,
        81,
        82,
        83,
        84,
        85,
        86,
        87,
        88,
        89,
        90,
        91,
        92,
        93,
        94,
        95,
        96,
        97,
        98,
        99,
        100,
        101,
        102,
        103,
        104,
        105,
        106,
        107,
        108,
        109,
        110,
        111,
        112,
        113,
        114,
        115,
        116,
        117,
        118,
        119,
        120,
        121,
        122,
        123,
        124,
        125,
        126,
        127,
        128,
        129,
        130,
        131,
        132,
        133,
        134,
        135,
        136,
        137,
        138,
        139,
        140,
        141,
        142,
        143,
        144,
        145,
        146,
        147,
        148,
        149,
        150,
        151,
        152,
        153,
        154,
        155,
        156,
        157,
        158,
        159,
        160,
        161,
        162,
        163,
        164,
        165,
        166,
        167,
        168,
        169,
        170,
        171,
        172,
        173,
        174,
        175,
        176,
        177,
        178,
        179,
        180,
        181,
        182,
        183,
        184,
        185,
        186,
        187,
        188,
        189,
        190,
        191,
        192,
        193,
        194,
        195,
        196,
        197,
        198,
        199,
        200,
        201,
        202,
        203,
        204,
        205,
        206,
        207,
        208,
        209,
        210,
        211,
        212,
        213,
        214,
        215,
        216,
        217,
        218,
        219,
        220,
        221,
        222,
        223,
        224,
        225,
        226,
        227,
        228,
        229,
        230,
        231,
        232,
        233,
        234,
        235,
        236,
        237,
        238,
        239,
        240,
        241,
        242,
        243,
        244,
        245,
        246,
        247,
        248,
        249,
        250,
        251,
        252,
        253,
        254,
        255,
        256,
        257,
        258,
        259,
        260,
        261,
        262,
        263,
        264,
        265,
        266,
        267,
        268,
        269,
        270,
        271,
        272,
        273,
        274,
        275,
        276,
        277,
        278,
        279,
        280,
        281,
        282,
        283,
        284,
        285,
        286,
        287,
        288
      ],
      "AcquisitionTime": [
        "102105.247500",
        "102106.247500",
        "102107.247500",
        "102108.247500",
        "102109.247500",
        "102110.247500",
        "102111.247500",
        "102112.247500",
        "102113.247500",
        "102114.247500",
        "102115.247500",
        "102116.247500",
        "102117.247500",
        "102118.247500",
        "102119.247500",
        "102120.247500",
        "102121.247500",
        "102122.247500",
        "102123.247500",
        "102124.247500",
        "102125.247500",
        "102126.247500",
        "102127.247500",
        "102128.247500",
        "102129.247500",
        "102130.247500",
        "102131.247500",
        "102132.247500",
        "102133.247500",
        "102134.247500",
        "102135.247500",
        "102136.247500",
        "102137.247500",
        "102138.247500",
        "102139.247500",
        "102140.247500",
        "102141.247500",
        "102142.247500",
        "102143.247500",
        "102144.247500",
        "102145.247500",
        "102146.247500",
        "102147.247500",
        "102148.247500",
        "102149.247500",
        "102150.247500",
        "102151.247500",
        "102152.247500",
        "102153.247500",
        "102154.247500",
        "102155.247500",
        "102156.247500",
        "102157.247500",
        "102158.247500",
        "102159.247500",
        "102200.247500",
        "102201.247500",
        "102202.247500",
        "102203.247500",
        "102204.247500",
        "102205.247500",
        "102206.247500",
        "102207.247500",
        "102208.247500",
        "102209.247500",
        "102210.247500",
        "102211.247500",
        "102212.247500",
        "102213.247500",
        "102214.247500",
        "102215.247500",
        "102216.247500",
        "102217.247500",
        "102218.247500",
        "102219.247500",
        "102220.247500",
        "102221.247500",
        "102222.247500",
        "102223.247500",
        "102224.247500",
        "102225.247500",
        "102226.247500",
        "102227.247500",
        "102228.247500",
        "102229.247500",
        "102230.247500",
        "102231.247500",
        "102232.247500",
        "102233.247500",
        "102234.247500",
        "102235.247500",
        "102236.247500",
        "102237.247500",
        "102238.247500",
        "102239.247500",
        "102240.247500",
        "102241.247500",
        "102242.247500",
        "102243.247500",
        "102244.247500",
        "102245.247500",
        "102246.247500",
        "102247.247500",
        "102248.247500",
        "102249.247500",
        "102250.247500",
        "102251.247500",
        "102252.247500",
        "102253.247500",
        "102254.247500",
        "102255.247500",
        "102256.247500",
        "102257.247500",
        "102258.247500",
        "102259.247500",
        "102300.247500",
        "102301.247500",
        "102302.247500",
        "102303.247500",
        "102304.247500",
        "102305.247500",
        "102306.247500",
        "102307.247500",
        "102308.247500",
        "102309.247500",
        "102310.247500",
        "102311.247500",
        "102312.247500",
        "102313.247500",
        "102314.247500",
        "102315.247500",
        "102316.247500",
        "102317.247500",
        "102318.247500",
        "102319.247500",
        "102320.247500",
        "102321.247500",
        "102322.247500",
        "102323.247500",
        "102324.247500",
        "102325.247500",
        "102326.247500",
        "102327.247500",
        "102328.247500",
        "102329.247500",
        "102330.247500",
        "102331.247500",
        "102332.247500",
        "102333.247500",
        "102334.247500",
        "102335.247500",
        "102336.247500",
        "102337.247500",
        "102338.247500",
        "102339.247500",
        "102340.247500",
        "102341.247500",
        "102342.247500",
        "102343.247500",
        "102344.247500",
        "102345.247500",
        "102346.247500",
        "102347.247500",
        "102348.247500",
        "102349.247500",
        "102350.247500",
        "102351.247500",
        "102352.247500",
        "102353.247500",
        "102354.247500",
        "102355.247500",
        "102356.247500",
        "102357.247500",
        "102358.247500",
        "102359.247500",
        "102400.247500",
        "102401.247500",
        "102402.247500",
        "102403.247500",
        "102404.247500",
        "102405.247500",
        "102406.247500",
        "102407.247500",
        "102408.247500",
        "102409.247500",
        "102410.247500",
        "102411.247500",
        "102412.247500",
        "102413.247500",
        "102414.247500",
        "102415.247500",
        "102416.247500",
        "102417.247500",
        "102418.247500",
        "102419.247500",
        "102420.247500",
        "102421.247500",
        "102422.247500",
        "102423.247500",
        "102424.247500",
        "102425.247500",
        "102426.247500",
        "102427.247500",
        "102428.247500",
        "102429.247500",
        "102430.247500",
        "102431.247500",
        "102432.247500",
        "102433.247500",
        "102434.247500",
        "102435.247500",
        "102436.247500",
        "102437.247500",
        "102438.247500",
        "102439.247500",
        "102440.247500",
        "102441.247500",
        "102442.247500",
        "102443.247500",
        "102444.247500",
        "102445.247500",
        "102446.247500",
        "102447.247500",
        "102448.247500",
        "102449.247500",
        "102450.247500",
        "102451.247500",
        "102452.247500",
        "102453.247500",
        "102454.247500",
        "102455.247500",
        "102456.247500",
        "102457.247500",
        "102458.247500",
        "102459.247500",
        "102500.247500",
        "102501.247500",
        "102502.247500",
        "102503.247500",
        "102504.247500",
        "102505.247500",
        "102506.247500",
        "102507.247500",
        "102508.247500",
        "102509.247500",
        "102510.247500",
        "102511.247500",
        "102512.247500",
        "102513.247500",
        "102514.247500",
        "102515.247500",
        "102516.247500",
        "102517.247500",
        "102518.247500",
        "102519.247500",
        "102520.247500",
        "102521.247500",
        "102522.247500",
        "102523.247500",
        "102524.247500",
        "102525.247500",
        "102526.247500",
        "102527.247500",
        "102528.247500",
        "102529.247500",
        "102530.247500",
        "102531.247500",
        "102532.247500",
        "102533.247500",
        "102534.247500",
        "102535.247500",
        "102536.247500",
        "102537.247500",
        "102538.247500",
        "102539.247500",
        "102540.247500",
        "102541.247500",
        "102542.247500",
        "102543.247500",
        "102544.247500",
        "102545.247500",
        "102546.247500",
        "102547.247500",
        "102548.247500",
        "102549.247500",
        "102550.247500",
        "102551.247500",
        "102552.247500"
      ],
      "ContentTime": [
        "102106.204000",
        "102107.058000",
        "102108.054000",
        "102109.030000",
        "102110.045000",
        "102111.063000",
        "102112.056000",
        "102113.059000",
        "102114.062000",
        "102115.040000",
        "102116.047000",
        "102117.067000",
        "102118.069000",
        "102119.081000",
        "102120.026000",
        "102121.062000",
        "102122.071000",
        "102123.050000",
        "102124.039000",
        "102125.052000",
        "102126.029000",
        "102127.050000",
        "102128.047000",
        "102129.041000",
        "102130.066000",
        "102131.049000",
        "102132.039000",
        "102133.085000",
        "102134.030000",
        "102135.051000",
        "102136.078000",
        "102137.072000",
        "102138.043000",
        "102139.066000",
        "102140.034000",
        "102141.061000",
        "102142.031000",
        "102143.041000",
        "102144.065000",
        "102145.043000",
        "102146.067000",
        "102147.049000",
        "102148.080000",
        "102149.072000",
        "102150.090000",
        "102151.070000",
        "102152.054000",
        "102153.035000",
        "102154.052000",
        "102155.052000",
        "102156.057000",
        "102157.062000",
        "102158.080000",
        "102159.094000",
        "102200.067000",
        "102201.054000",
        "102202.068000",
        "102203.080000",
        "102204.049000",
        "102205.037000",
        "102206.081000",
        "102207.049000",
        "102208.120000",
        "102209.076000",
        "102210.061000",
        "102211.041000",
        "102212.088000",
        "102213.039000",
        "102214.058000",
        "102215.051000",
        "102216.080000",
        "102217.077000",
        "102218.035000",
        "102219.034000",
        "102220.069000",
        "102221.032000",
        "102222.103000",
        "102223.090000",
        "102224.044000",
        "102225.056000",
        "102226.059000",
        "102227.054000",
        "102228.068000",
        "102229.090000",
        "102230.102000",
        "102231.075000",
        "102232.094000",
        "102233.052000",
        "102234.041000",
        "102235.047000",
        "102236.058000",
        "102237.047000",
        "102238.060000",
        "102239.050000",
        "102240.054000",
        "102241.028000",
        "102242.052000",
        "102243.082000",
        "102244.047000",
        "102245.092000",
        "102246.051000",
        "102247.081000",
        "102248.052000",
        "102249.086000",
        "102250.066000",
        "102251.050000",
        "102252.049000",
        "102253.080000",
        "102254.048000",
        "102255.077000",
        "102256.052000",
        "102257.096000",
        "102258.053000",
        "102259.057000",
        "102300.139000",
        "102301.070000",
        "102302.105000",
        "102303.080000",
        "102304.048000",
        "102305.075000",
        "102306.063000",
        "102307.055000",
        "102308.060000",
        "102309.050000",
        "102310.064000",
        "102311.069000",
        "102312.119000",
        "102313.088000",
        "102314.078000",
        "102315.114000",
        "102316.047000",
        "102317.077000",
        "102318.054000",
        "102319.066000",
        "102320.051000",
        "102321.046000",
        "102322.080000",
        "102323.049000",
        "102324.046000",
        "102325.072000",
        "102326.068000",
        "102327.061000",
        "102328.079000",
        "102329.056000",
        "102330.045000",
        "102331.061000",
        "102332.066000",
        "102333.034000",
        "102334.073000",
        "102335.071000",
        "102336.071000",
        "102337.017000",
        "102338.044000",
        "102339.110000",
        "102340.073000",
        "102341.068000",
        "102342.079000",
        "102343.044000",
        "102344.061000",
        "102345.065000",
        "102346.044000",
        "102347.047000",
        "102348.050000",
        "102349.060000",
        "102350.077000",
        "102351.065000",
        "102352.060000",
        "102353.067000",
        "102354.071000",
        "102355.049000",
        "102356.076000",
        "102357.049000",
        "102358.075000",
        "102359.069000",
        "102400.115000",
        "102401.038000",
        "102402.050000",
        "102403.068000",
        "102404.032000",
        "102405.042000",
        "102406.111000",
        "102407.075000",
        "102408.078000",
        "102409.035000",
        "102410.075000",
        "102411.064000",
        "102412.084000",
        "102413.070000",
        "102414.051000",
        "102415.062000",
        "102416.046000",
        "102417.064000",
        "102418.076000",
        "102419.059000",
        "102420.060000",
        "102421.102000",
        "102422.052000",
        "102423.069000",
        "102424.051000",
        "102425.071000",
        "102426.065000",
        "102427.085000",
        "102428.065000",
        "102429.046000",
        "102430.071000",
        "102431.066000",
        "102432.078000",
        "102433.063000",
        "102434.081000",
        "102435.043000",
        "102436.055000",
        "102437.064000",
        "102438.053000",
        "102439.099000",
        "102440.067000",
        "102441.058000",
        "102442.109000",
        "102443.068000",
        "102444.048000",
        "102445.082000",
        "102446.075000",
        "102447.062000",
        "102448.052000",
        "102449.051000",
        "102450.045000",
        "102451.062000",
        "102452.043000",
        "102453.060000",
        "102454.040000",
        "102455.055000",
        "102456.075000",
        "102457.070000",
        "102458.049000",
        "102459.073000",
        "102500.089000",
        "102501.063000",
        "102502.049000",
        "102503.042000",
        "102504.077000",
        "102505.069000",
        "102506.046000",
        "102507.042000",
        "102508.062000",
        "102509.050000",
        "102510.064000",
        "102511.060000",
        "102512.062000",
        "102513.070000",
        "102514.029000",
        "102515.033000",
        "102516.058000",
        "102517.080000",
        "102518.054000",
        "102519.104000",
        "102520.065000",
        "102521.104000",
        "102522.045000",
        "102523.066000",
        "102524.082000",
        "102525.066000",
        "102526.051000",
        "102527.055000",
        "102528.048000",
        "102529.065000",
        "102530.045000",
        "102531.044000",
        "102532.064000",
        "102533.074000",
        "102534.044000",
        "102535.066000",
        "102536.051000",
        "102537.090000",
        "102538.048000",
        "102539.059000",
        "102540.085000",
        "102541.078000",
        "102542.141000",
        "102543.068000",
        "102544.070000",
        "102545.055000",
        "102546.036000",
        "102547.064000",
        "102548.049000",
        "102549.053000",
        "102550.064000",
        "102551.098000",
        "102552.062000",
        "102553.097000"
      ],
      "InstanceCreationTime": [
        "102106.204000",
        "102107.058000",
        "102108.054000",
        "102109.030000",
        "102110.045000",
        "102111.063000",
        "102112.056000",
        "102113.059000",
        "102114.062000",
        "102115.040000",
        "102116.047000",
        "102117.067000",
        "102118.069000",
        "102119.081000",
        "102120.026000",
        "102121.062000",
        "102122.071000",
        "102123.050000",
        "102124.039000",
        "102125.052000",
        "102126.029000",
        "102127.050000",
        "102128.047000",
        "102129.041000",
        "102130.066000",
        "102131.049000",
        "102132.039000",
        "102133.085000",
        "102134.030000",
        "102135.051000",
        "102136.078000",
        "102137.072000",
        "102138.043000",
        "102139.066000",
        "102140.034000",
        "102141.061000",
        "102142.031000",
        "102143.041000",
        "102144.065000",
        "102145.043000",
        "102146.067000",
        "102147.049000",
        "102148.080000",
        "102149.072000",
        "102150.090000",
        "102151.070000",
        "102152.054000",
        "102153.035000",
        "102154.052000",
        "102155.052000",
        "102156.057000",
        "102157.062000",
        "102158.080000",
        "102159.094000",
        "102200.067000",
        "102201.054000",
        "102202.068000",
        "102203.080000",
        "102204.049000",
        "102205.037000",
        "102206.081000",
        "102207.049000",
        "102208.120000",
        "102209.076000",
        "102210.061000",
        "102211.041000",
        "102212.088000",
        "102213.039000",
        "102214.058000",
        "102215.051000",
        "102216.080000",
        "102217.077000",
        "102218.035000",
        "102219.034000",
        "102220.069000",
        "102221.032000",
        "102222.103000",
        "102223.090000",
        "102224.044000",
        "102225.056000",
        "102226.059000",
        "102227.054000",
        "102228.068000",
        "102229.090000",
        "102230.102000",
        "102231.075000",
        "102232.094000",
        "102233.052000",
        "102234.041000",
        "102235.047000",
        "102236.058000",
        "102237.047000",
        "102238.060000",
        "102239.050000",
        "102240.054000",
        "102241.028000",
        "102242.052000",
        "102243.082000",
        "102244.047000",
        "102245.092000",
        "102246.051000",
        "102247.081000",
        "102248.052000",
        "102249.086000",
        "102250.066000",
        "102251.050000",
        "102252.049000",
        "102253.080000",
        "102254.048000",
        "102255.077000",
        "102256.052000",
        "102257.096000",
        "102258.053000",
        "102259.057000",
        "102300.139000",
        "102301.070000",
        "102302.105000",
        "102303.080000",
        "102304.048000",
        "102305.075000",
        "102306.063000",
        "102307.055000",
        "102308.060000",
        "102309.050000",
        "102310.064000",
        "102311.069000",
        "102312.119000",
        "102313.088000",
        "102314.078000",
        "102315.114000",
        "102316.047000",
        "102317.077000",
        "102318.054000",
        "102319.066000",
        "102320.051000",
        "102321.046000",
        "102322.080000",
        "102323.049000",
        "102324.046000",
        "102325.072000",
        "102326.068000",
        "102327.061000",
        "102328.079000",
        "102329.056000",
        "102330.045000",
        "102331.061000",
        "102332.066000",
        "102333.034000",
        "102334.073000",
        "102335.071000",
        "102336.071000",
        "102337.017000",
        "102338.044000",
        "102339.110000",
        "102340.073000",
        "102341.068000",
        "102342.079000",
        "102343.044000",
        "102344.061000",
        "102345.065000",
        "102346.044000",
        "102347.047000",
        "102348.050000",
        "102349.060000",
        "102350.077000",
        "102351.065000",
        "102352.060000",
        "102353.067000",
        "102354.071000",
        "102355.049000",
        "102356.076000",
        "102357.049000",
        "102358.075000",
        "102359.069000",
        "102400.115000",
        "102401.038000",
        "102402.050000",
        "102403.068000",
        "102404.032000",
        "102405.042000",
        "102406.111000",
        "102407.075000",
        "102408.078000",
        "102409.035000",
        "102410.075000",
        "102411.064000",
        "102412.084000",
        "102413.070000",
        "102414.051000",
        "102415.062000",
        "102416.046000",
        "102417.064000",
        "102418.076000",
        "102419.059000",
        "102420.060000",
        "102421.102000",
        "102422.052000",
        "102423.069000",
        "102424.051000",
        "102425.071000",
        "102426.065000",
        "102427.085000",
        "102428.065000",
        "102429.046000",
        "102430.071000",
        "102431.066000",
        "102432.078000",
        "102433.063000",
        "102434.081000",
        "102435.043000",
        "102436.055000",
        "102437.064000",
        "102438.053000",
        "102439.099000",
        "102440.067000",
        "102441.058000",
        "102442.109000",
        "102443.068000",
        "102444.048000",
        "102445.082000",
        "102446.075000",
        "102447.062000",
        "102448.052000",
        "102449.051000",
        "102450.045000",
        "102451.062000",
        "102452.043000",
        "102453.060000",
        "102454.040000",
        "102455.055000",
        "102456.075000",
        "102457.070000",
        "102458.049000",
        "102459.073000",
        "102500.089000",
        "102501.063000",
        "102502.049000",
        "102503.042000",
        "102504.077000",
        "102505.069000",
        "102506.046000",
        "102507.042000",
        "102508.062000",
        "102509.050000",
        "102510.064000",
        "102511.060000",
        "102512.062000",
        "102513.070000",
        "102514.029000",
        "102515.033000",
        "102516.058000",
        "102517.080000",
        "102518.054000",
        "102519.104000",
        "102520.065000",
        "102521.104000",
        "102522.045000",
        "102523.066000",
        "102524.082000",
        "102525.066000",
        "102526.051000",
        "102527.055000",
        "102528.048000",
        "102529.065000",
        "102530.045000",
        "102531.044000",
        "102532.064000",
        "102533.074000",
        "102534.044000",
        "102535.066000",
        "102536.051000",
        "102537.090000",
        "102538.048000",
        "102539.059000",
        "102540.085000",
        "102541.078000",
        "102542.141000",
        "102543.068000",
        "102544.070000",
        "102545.055000",
        "102546.036000",
        "102547.064000",
        "102548.049000",
        "102549.053000",
        "102550.064000",
        "102551.098000",
        "102552.062000",
        "102553.097000"
      ],
      "InstanceNumber": [
        1,
        2,
        3,
        4,
        5,
        6,
        7,
        8,
        9,
        10,
        11,
        12,
        13,
        14,
        15,
        16,
        17,
        18,
        19,
        20,
        21,
        22,
        23,
        24,
        25,
        26,
        27,
        28,
        29,
        30,
        31,
        32,
        33,
        34,
        35,
        36,
        37,
        38,
        39,
        40,
        41,
        42,
        43,
        44,
        45,
        46,
        47,
        48,
        49,
        50,
        51,
        52,
        53,
        54,
        55,
        56,
        57,
        58,
        59,
        60,
        61,
        62,
        63,
        64,
        65,
        66,
        67,
        68,
        69,
        70,
        71,
        72,
        73,
        74,
        75,
        76,
        77,
        78,
        79,
        80,
        81,
        82,
        83,
        84,
        85,
        86,
        87,
        88,
        89,
        90,
        91,
        92,
        93,
        94,
        95,
        96,
        97,
        98,
        99,
        100,
        101,
        102,
        103,
        104,
        105,
        106,
        107,
        108,
        109,
        110,
        111,
        112,
        113,
        114,
        115,
        116,
        117,
        118,
        119,
        120,
        121,
        122,
        123,
        124,
        125,
        126,
        127,
        128,
        129,
        130,
        131,
        132,
        133,
        134,
        135,
        136,
        137,
        138,
        139,
        140,
        141,
        142,
        143,
        144,
        145,
        146,
        147,
        148,
        149,
        150,
        151,
        152,
        153,
        154,
        155,
