{
  "AcquisitionMatrixPE": 96,
  "AcquisitionNumber": 1,
  "BandwidthPerPixelPhaseEncode": 18.939,
  "BaseResolution": 96,
  "BodyPartExamined": "BRAIN",
  "ConsistencyInfo": "N4_VE11C_LATEST_20160120",
  "ConversionSoftware": "dcm2niix",
  "ConversionSoftwareVersion": "v1.0.20171215 (OpenJPEG build) GCC6.3.0",
  "DerivedVendorReportedEchoSpacing": 0.000550011,
  "DeviceSerialNumber": "66112",
  "DwellTime": 2.2e-06,
  "EchoTime": 0.033,
  "EchoTrainLength": 96,
  "EffectiveEchoSpacing": 0.000550011,
  "FlipAngle": 59,
  "ImageOrientationPatientDICOM": [
    0.999099,
    0.00120388,
    0.0424178,
    -0.000697488,
    0.999928,
    -0.0119511
  ],
  "ImageType": [
    "ORIGINAL",
    "PRIMARY",
    "FMRI",
    "NONE",
    "ND",
    "NORM",
    "MOSAIC"
  ],
  "InPlanePhaseEncodingDirectionDICOM": "COL",
  "InstitutionAddress": "Maynard_3_Hanover_NH_US_03755",
  "InstitutionName": "Dartmouth_College_-_PBS",
  "InstitutionalDepartmentName": "Department",
  "MRAcquisitionType": "2D",
  "MagneticFieldStrength": 3,
  "Manufacturer": "Siemens",
  "ManufacturersModelName": "Prisma",
  "Modality": "MR",
  "MultibandAccelerationFactor": 4,
  "PatientPosition": "HFS",
  "PercentPhaseFOV": 100,
  "PhaseEncodingDirection": "j-",
  "PhaseEncodingSteps": 96,
  "PhaseResolution": 1,
  "PixelBandwidth": 2365,
  "ProcedureStepDescription": "Gobbini_Matteo_1038_hyperface",
  "ProtocolName": "func_run-05_task-localizer",
  "PulseSequenceDetails": "%SiemensSeq%_ep2d_bold",
  "ReceiveCoilActiveElements": "HEA;HEP",
  "ReceiveCoilName": "Head_32",
  "ReconMatrixPE": 96,
  "RepetitionTime": 1,
  "SAR": 0.0410133,
  "ScanOptions": "FS",
  "ScanningSequence": "EP",
  "SequenceName": "_epfid2d1_96",
  "SequenceVariant": "SK",
  "SeriesDescription": "func_run-05_task-localizer",
  "SeriesNumber": 36,
  "ShimSetting": [
    4155,
    -7718,
    -7476,
    289,
    -30,
    -12,
    -109,
    70
  ],
  "SliceThickness": 2.5,
  "SliceTiming": [
    0.735,
    0,
    0.49,
    0.08,
    0.57,
    0.1625,
    0.6525,
    0.325,
    0.815,
    0.4075,
    0.8975,
    0.245,
    0.735,
    0,
    0.49,
    0.08,
    0.57,
    0.1625,
    0.6525,
    0.325,
    0.815,
    0.4075,
    0.8975,
    0.245,
    0.735,
    0,
    0.49,
    0.08,
    0.57,
    0.1625,
    0.6525,
    0.325,
    0.815,
    0.4075,
    0.8975,
    0.245,
    0.735,
    0,
    0.49,
    0.08,
    0.57,
    0.1625,
    0.6525,
    0.325,
    0.815,
    0.4075,
    0.8975,
    0.245
  ],
  "SoftwareVersions": "syngo_MR_E11",
  "SpacingBetweenSlices": 2.5,
  "StationName": "AWP66112",
  "TotalReadoutTime": 0.0522511,
  "TxRefAmp": 229.09,
  "time": {
    "samples": {
      "AcquisitionNumber": [
        1,
        2,
        3,
        4,
        5,
        6,
        7,
        8,
        9,
        10,
        11,
        12,
        13,
        14,
        15,
        16,
        17,
        18,
        19,
        20,
        21,
        22,
        23,
        24,
        25,
        26,
        27,
        28,
        29,
        30,
        31,
        32,
        33,
        34,
        35,
        36,
        37,
        38,
        39,
        40,
        41,
        42,
        43,
        44,
        45,
        46,
        47,
        48,
        49,
        50,
        51,
        52,
        53,
        54,
        55,
        56,
        57,
        58,
        59,
        60,
        61,
        62,
        63,
        64,
        65,
        66,
        67,
        68,
        69,
        70,
        71,
        72,
        73,
        74,
        75,
        76,
        77,
        78,
        79,
        80,
        81,
        82,
        83,
        84,
        85,
        86,
        87,
        88,
        89,
        90,
        91,
        92,
        93,
        94,
        95,
        96,
        97,
        98,
        99,
        100,
        101,
        102,
        103,
        104,
        105,
        106,
        107,
        108,
        109,
        110,
        111,
        112,
        113,
        114,
        115,
        116,
        117,
        118,
        119,
        120,
        121,
        122,
        123,
        124,
        125,
        126,
        127,
        128,
        129,
        130,
        131,
        132,
        133,
        134,
        135,
        136,
        137,
        138,
        139,
        140,
        141,
        142,
        143,
        144,
        145,
        146,
        147,
        148,
        149,
        150,
        151,
        152,
        153,
        154,
        155,
        156,
        157,
        158,
        159,
        160,
        161,
        162,
        163,
        164,
        165,
        166,
        167,
        168,
        169,
        170,
        171,
        172,
        173,
        174,
        175,
        176,
        177,
        178,
        179,
        180,
        181,
        182,
        183,
        184,
        185,
        186,
        187,
        188,
        189,
        190,
        191,
        192,
        193,
        194,
        195,
        196,
        197,
        198,
        199,
        200,
        201,
        202,
        203,
        204,
        205,
        206,
        207,
        208,
        209,
        210,
        211,
        212,
        213,
        214,
        215,
        216,
        217,
        218,
        219,
        220,
        221,
        222,
        223,
        224,
        225,
        226,
        227,
        228,
        229,
        230,
        231,
        232,
        233,
        234,
        235,
        236
      ],
      "AcquisitionTime": [
        "103146.132500",
        "103147.132500",
        "103148.132500",
        "103149.132500",
        "103150.132500",
        "103151.132500",
        "103152.132500",
        "103153.132500",
        "103154.132500",
        "103155.132500",
        "103156.132500",
        "103157.132500",
        "103158.132500",
        "103159.132500",
        "103200.132500",
        "103201.132500",
        "103202.132500",
        "103203.132500",
        "103204.132500",
        "103205.132500",
        "103206.132500",
        "103207.132500",
        "103208.132500",
        "103209.132500",
        "103210.132500",
        "103211.132500",
        "103212.132500",
        "103213.132500",
        "103214.132500",
        "103215.132500",
        "103216.132500",
        "103217.132500",
        "103218.132500",
        "103219.132500",
        "103220.132500",
        "103221.132500",
        "103222.132500",
        "103223.132500",
        "103224.132500",
        "103225.132500",
        "103226.132500",
        "103227.132500",
        "103228.132500",
        "103229.132500",
        "103230.132500",
        "103231.132500",
        "103232.132500",
        "103233.132500",
        "103234.132500",
        "103235.132500",
        "103236.132500",
        "103237.132500",
        "103238.132500",
        "103239.132500",
        "103240.132500",
        "103241.132500",
        "103242.132500",
        "103243.132500",
        "103244.132500",
        "103245.132500",
        "103246.132500",
        "103247.132500",
        "103248.132500",
        "103249.132500",
        "103250.132500",
        "103251.132500",
        "103252.132500",
        "103253.132500",
        "103254.132500",
        "103255.132500",
        "103256.132500",
        "103257.132500",
        "103258.132500",
        "103259.132500",
        "103300.132500",
        "103301.132500",
        "103302.132500",
        "103303.132500",
        "103304.132500",
        "103305.132500",
        "103306.132500",
        "103307.132500",
        "103308.132500",
        "103309.132500",
        "103310.132500",
        "103311.132500",
        "103312.132500",
        "103313.132500",
        "103314.132500",
        "103315.132500",
        "103316.132500",
        "103317.132500",
        "103318.132500",
        "103319.132500",
        "103320.132500",
        "103321.132500",
        "103322.132500",
        "103323.132500",
        "103324.132500",
        "103325.132500",
        "103326.132500",
        "103327.132500",
        "103328.132500",
        "103329.132500",
        "103330.132500",
        "103331.132500",
        "103332.132500",
        "103333.132500",
        "103334.132500",
        "103335.132500",
        "103336.132500",
        "103337.132500",
        "103338.132500",
        "103339.132500",
        "103340.132500",
        "103341.132500",
        "103342.132500",
        "103343.132500",
        "103344.132500",
        "103345.132500",
        "103346.132500",
        "103347.132500",
        "103348.132500",
        "103349.132500",
        "103350.132500",
        "103351.132500",
        "103352.132500",
        "103353.132500",
        "103354.132500",
        "103355.132500",
        "103356.132500",
        "103357.132500",
        "103358.132500",
        "103359.132500",
        "103400.132500",
        "103401.132500",
        "103402.132500",
        "103403.132500",
        "103404.132500",
        "103405.132500",
        "103406.132500",
        "103407.132500",
        "103408.132500",
        "103409.132500",
        "103410.132500",
        "103411.132500",
        "103412.132500",
        "103413.132500",
        "103414.132500",
        "103415.132500",
        "103416.132500",
        "103417.132500",
        "103418.132500",
        "103419.132500",
        "103420.132500",
        "103421.132500",
        "103422.132500",
        "103423.132500",
        "103424.132500",
        "103425.132500",
        "103426.132500",
        "103427.132500",
        "103428.132500",
        "103429.132500",
        "103430.132500",
        "103431.132500",
        "103432.132500",
        "103433.132500",
        "103434.132500",
        "103435.132500",
        "103436.132500",
        "103437.132500",
        "103438.132500",
        "103439.132500",
        "103440.132500",
        "103441.132500",
        "103442.132500",
        "103443.132500",
        "103444.132500",
        "103445.132500",
        "103446.132500",
        "103447.132500",
        "103448.132500",
        "103449.132500",
        "103450.132500",
        "103451.132500",
        "103452.132500",
        "103453.132500",
        "103454.132500",
        "103455.132500",
        "103456.132500",
        "103457.132500",
        "103458.132500",
        "103459.132500",
        "103500.132500",
        "103501.132500",
        "103502.132500",
        "103503.132500",
        "103504.132500",
        "103505.132500",
        "103506.132500",
        "103507.132500",
        "103508.132500",
        "103509.132500",
        "103510.132500",
        "103511.132500",
        "103512.132500",
        "103513.132500",
        "103514.132500",
        "103515.132500",
        "103516.132500",
        "103517.132500",
        "103518.132500",
        "103519.132500",
        "103520.132500",
        "103521.132500",
        "103522.132500",
        "103523.132500",
        "103524.132500",
        "103525.132500",
        "103526.132500",
        "103527.132500",
        "103528.132500",
        "103529.132500",
        "103530.132500",
        "103531.132500",
        "103532.132500",
        "103533.132500",
        "103534.132500",
        "103535.132500",
        "103536.132500",
        "103537.132500",
        "103538.132500",
        "103539.132500",
        "103540.132500",
        "103541.132500"
      ],
      "ContentTime": [
        "103147.496000",
        "103148.336000",
        "103149.321000",
        "103150.326000",
        "103151.347000",
        "103152.313000",
        "103153.324000",
        "103154.319000",
        "103155.313000",
        "103156.342000",
        "103157.306000",
        "103158.330000",
        "103159.324000",
        "103200.329000",
        "103201.333000",
        "103202.342000",
        "103203.337000",
        "103204.337000",
        "103205.315000",
        "103206.324000",
        "103207.291000",
        "103208.326000",
        "103209.324000",
        "103210.354000",
        "103211.360000",
        "103212.372000",
        "103213.371000",
        "103214.338000",
        "103215.319000",
        "103216.353000",
        "103217.369000",
        "103218.355000",
        "103219.355000",
        "103220.302000",
        "103221.345000",
        "103222.318000",
        "103223.327000",
        "103224.295000",
        "103225.325000",
        "103226.365000",
        "103227.363000",
        "103228.313000",
        "103229.330000",
        "103230.353000",
        "103231.363000",
        "103232.323000",
        "103233.354000",
        "103234.351000",
        "103235.315000",
        "103236.366000",
        "103237.397000",
        "103238.354000",
        "103239.357000",
        "103240.309000",
        "103241.324000",
        "103242.323000",
        "103243.324000",
        "103244.345000",
        "103245.307000",
        "103246.351000",
        "103247.312000",
        "103248.317000",
        "103249.351000",
        "103250.308000",
        "103251.289000",
        "103252.332000",
        "103253.337000",
        "103254.313000",
        "103255.329000",
        "103256.336000",
        "103257.311000",
        "103258.323000",
        "103259.340000",
        "103300.299000",
        "103301.391000",
        "103302.336000",
        "103303.309000",
        "103304.314000",
        "103305.307000",
        "103306.333000",
        "103307.333000",
        "103308.325000",
        "103309.316000",
        "103310.340000",
        "103311.319000",
        "103312.319000",
        "103313.335000",
        "103314.343000",
        "103315.337000",
        "103316.347000",
        "103317.317000",
        "103318.315000",
        "103319.323000",
        "103320.330000",
        "103321.318000",
        "103322.340000",
        "103323.305000",
        "103324.324000",
        "103325.317000",
        "103326.324000",
        "103327.300000",
        "103328.327000",
        "103329.327000",
        "103330.313000",
        "103331.348000",
        "103332.330000",
        "103333.377000",
        "103334.335000",
        "103335.313000",
        "103336.317000",
        "103337.338000",
        "103338.327000",
        "103339.334000",
        "103340.348000",
        "103341.346000",
        "103342.325000",
        "103343.335000",
        "103344.323000",
        "103345.349000",
        "103346.361000",
        "103347.357000",
        "103348.334000",
        "103349.312000",
        "103350.338000",
        "103351.319000",
        "103352.313000",
        "103353.313000",
        "103354.356000",
        "103355.364000",
        "103356.357000",
        "103357.347000",
        "103358.348000",
        "103359.327000",
        "103400.314000",
        "103401.351000",
        "103402.358000",
        "103403.349000",
        "103404.317000",
        "103405.329000",
        "103406.352000",
        "103407.322000",
        "103408.317000",
        "103409.312000",
        "103410.330000",
        "103411.316000",
        "103412.343000",
        "103413.336000",
        "103414.341000",
        "103415.334000",
        "103416.329000",
        "103417.326000",
        "103418.346000",
        "103419.336000",
        "103420.350000",
        "103421.331000",
        "103422.326000",
        "103423.342000",
        "103424.328000",
        "103425.369000",
        "103426.321000",
        "103427.336000",
        "103428.323000",
        "103429.309000",
        "103430.327000",
        "103431.335000",
        "103432.343000",
        "103433.338000",
        "103434.380000",
        "103435.334000",
        "103436.331000",
        "103437.376000",
        "103438.315000",
        "103439.358000",
        "103440.379000",
        "103441.357000",
        "103442.313000",
        "103443.331000",
        "103444.316000",
        "103445.312000",
        "103446.336000",
        "103447.365000",
        "103448.358000",
        "103449.331000",
        "103450.331000",
        "103451.333000",
        "103452.320000",
        "103453.334000",
        "103454.336000",
        "103455.385000",
        "103456.416000",
        "103457.341000",
        "103458.327000",
        "103459.354000",
        "103500.369000",
        "103501.334000",
        "103502.375000",
        "103503.369000",
        "103504.341000",
        "103505.338000",
        "103506.321000",
        "103507.364000",
        "103508.289000",
        "103509.307000",
        "103510.339000",
        "103511.362000",
        "103512.337000",
        "103513.329000",
        "103514.334000",
        "103515.326000",
        "103516.379000",
        "103517.328000",
        "103518.324000",
        "103519.319000",
        "103520.345000",
        "103521.322000",
        "103522.319000",
        "103523.380000",
        "103524.340000",
        "103525.324000",
        "103526.348000",
        "103527.346000",
        "103528.367000",
        "103529.324000",
        "103530.345000",
        "103531.313000",
        "103532.372000",
        "103533.384000",
        "103534.387000",
        "103535.303000",
        "103536.343000",
        "103537.339000",
        "103538.354000",
        "103539.324000",
        "103540.315000",
        "103541.334000",
        "103542.341000"
      ],
      "InstanceCreationTime": [
        "103147.496000",
        "103148.336000",
        "103149.321000",
        "103150.326000",
        "103151.347000",
        "103152.313000",
        "103153.324000",
        "103154.319000",
        "103155.313000",
        "103156.342000",
        "103157.306000",
        "103158.330000",
        "103159.324000",
        "103200.329000",
        "103201.333000",
        "103202.342000",
        "103203.337000",
        "103204.337000",
        "103205.315000",
        "103206.324000",
        "103207.291000",
        "103208.326000",
        "103209.324000",
        "103210.354000",
        "103211.360000",
        "103212.372000",
        "103213.371000",
        "103214.338000",
        "103215.319000",
        "103216.353000",
        "103217.369000",
        "103218.355000",
        "103219.355000",
        "103220.302000",
        "103221.345000",
        "103222.318000",
        "103223.327000",
        "103224.295000",
        "103225.325000",
        "103226.365000",
        "103227.363000",
        "103228.313000",
        "103229.330000",
        "103230.353000",
        "103231.363000",
        "103232.323000",
        "103233.354000",
        "103234.351000",
        "103235.315000",
        "103236.366000",
        "103237.397000",
        "103238.354000",
        "103239.357000",
        "103240.309000",
        "103241.324000",
        "103242.323000",
        "103243.324000",
        "103244.345000",
        "103245.307000",
        "103246.351000",
        "103247.312000",
        "103248.317000",
        "103249.351000",
        "103250.308000",
        "103251.289000",
        "103252.332000",
        "103253.337000",
        "103254.313000",
        "103255.329000",
        "103256.336000",
        "103257.311000",
        "103258.323000",
        "103259.340000",
        "103300.299000",
        "103301.391000",
        "103302.336000",
        "103303.309000",
        "103304.314000",
        "103305.307000",
        "103306.333000",
        "103307.333000",
        "103308.325000",
        "103309.316000",
        "103310.340000",
        "103311.319000",
        "103312.319000",
        "103313.335000",
        "103314.343000",
        "103315.337000",
        "103316.347000",
        "103317.317000",
        "103318.315000",
        "103319.323000",
        "103320.330000",
        "103321.318000",
        "103322.340000",
        "103323.305000",
        "103324.324000",
        "103325.317000",
        "103326.324000",
        "103327.300000",
        "103328.327000",
        "103329.327000",
        "103330.313000",
        "103331.348000",
        "103332.330000",
        "103333.377000",
        "103334.335000",
        "103335.313000",
        "103336.317000",
        "103337.338000",
        "103338.327000",
        "103339.334000",
        "103340.348000",
        "103341.346000",
        "103342.325000",
        "103343.335000",
        "103344.323000",
        "103345.349000",
        "103346.361000",
        "103347.357000",
        "103348.334000",
        "103349.312000",
        "103350.338000",
        "103351.319000",
        "103352.313000",
        "103353.313000",
        "103354.356000",
        "103355.364000",
        "103356.357000",
        "103357.347000",
        "103358.348000",
        "103359.327000",
        "103400.314000",
        "103401.351000",
        "103402.358000",
        "103403.349000",
        "103404.317000",
        "103405.329000",
        "103406.352000",
        "103407.322000",
        "103408.317000",
        "103409.312000",
        "103410.330000",
        "103411.316000",
        "103412.343000",
        "103413.336000",
        "103414.341000",
        "103415.334000",
        "103416.329000",
        "103417.326000",
        "103418.346000",
        "103419.336000",
        "103420.350000",
        "103421.331000",
        "103422.326000",
        "103423.342000",
        "103424.328000",
        "103425.369000",
        "103426.321000",
        "103427.336000",
        "103428.323000",
        "103429.309000",
        "103430.327000",
        "103431.335000",
        "103432.343000",
        "103433.338000",
        "103434.380000",
        "103435.334000",
        "103436.331000",
        "103437.376000",
        "103438.315000",
        "103439.358000",
        "103440.379000",
        "103441.357000",
        "103442.313000",
        "103443.331000",
        "103444.316000",
        "103445.312000",
        "103446.336000",
        "103447.365000",
        "103448.358000",
        "103449.331000",
        "103450.331000",
        "103451.333000",
        "103452.320000",
        "103453.334000",
        "103454.336000",
        "103455.385000",
        "103456.416000",
        "103457.341000",
        "103458.327000",
        "103459.354000",
        "103500.369000",
        "103501.334000",
        "103502.375000",
        "103503.369000",
        "103504.341000",
        "103505.338000",
        "103506.321000",
        "103507.364000",
        "103508.289000",
        "103509.307000",
        "103510.339000",
        "103511.362000",
        "103512.337000",
        "103513.329000",
        "103514.334000",
        "103515.326000",
        "103516.379000",
        "103517.328000",
        "103518.324000",
        "103519.319000",
        "103520.345000",
        "103521.322000",
        "103522.319000",
        "103523.380000",
        "103524.340000",
        "103525.324000",
        "103526.348000",
        "103527.346000",
        "103528.367000",
        "103529.324000",
        "103530.345000",
        "103531.313000",
        "103532.372000",
        "103533.384000",
        "103534.387000",
        "103535.303000",
        "103536.343000",
        "103537.339000",
        "103538.354000",
        "103539.324000",
        "103540.315000",
        "103541.334000",
        "103542.341000"
      ],
      "InstanceNumber": [
        1,
        2,
        3,
        4,
        5,
        6,
        7,
        8,
        9,
        10,
        11,
        12,
        13,
        14,
        15,
        16,
        17,
        18,
        19,
        20,
        21,
        22,
        23,
        24,
        25,
        26,
        27,
        28,
        29,
        30,
        31,
        32,
        33,
        34,
        35,
        36,
        37,
        38,
        39,
        40,
        41,
        42,
        43,
        44,
        45,
        46,
        47,
        48,
        49,
        50,
        51,
        52,
        53,
        54,
        55,
        56,
        57,
        58,
        59,
        60,
        61,
        62,
        63,
        64,
        65,
        66,
        67,
        68,
        69,
        70,
        71,
        72,
        73,
        74,
        75,
        76,
        77,
        78,
        79,
        80,
        81,
        82,
        83,
        84,
        85,
        86,
        87,
        88,
        89,
        90,
        91,
        92,
        93,
        94,
        95,
        96,
        97,
        98,
        99,
        100,
        101,
        102,
        103,
        104,
        105,
        106,
        107,
        108,
        109,
        110,
        111,
        112,
        113,
        114,
        115,
        116,
        117,
        118,
        119,
        120,
        121,
        122,
        123,
        124,
        125,
        126,
        127,
        128,
        129,
        130,
        131,
        132,
        133,
        134,
        135,
        136,
        137,
        138,
        139,
        140,
        141,
        142,
        143,
        144,
        145,
        146,
        147,
        148,
        149,
        150,
        151,
        152,
        153,
        154,
        155,
        156,
        157,
        158,
        159,
        160,
        161,
        162,
        163,
        164,
        165,
        166,
        167,
        168,
        169,
        170,
        171,
        172,
        173,
        174,
        175,
        176,
        177,
        178,
        179,
        180,
        181,
        182,
        183,
        184,
        185,
        186,
        187,
        188,
        189,
        190,
        191,
        192,
        193,
        194,
        195,
        196,
        197,
        198,
        199,
        200,
        201,
        202,
        203,
        204,
        205,
        206,
        207,
        208,
        209,
        210,
        211,
        212,
        213,
        214,
        215,
        216,
        217,
        218,
        219,
        220,
        221,
        222,
        223,
        224,
        225,
        226,
        227,
        228,
        229,
        230,
        231,
        232,
        233,
        234,
        235,
        236
      ],
      "LargestImagePixelValue": [
        900,
        782,
        915,
        752,
        809,
        956,
        925,
        832,
        741,
        962,
        1091,
        961,
        1006,
        1088,
        1021,
        978,
        994,
        954,
        934,
        750,
        1293,
        734,
        665,
        679,
        689,
        767,
        842,
        960,
        982,
        1041,
        996,
        974,
        1045,
        1025,
        1049,
        1129,
        801,
        782,
        893,
        880,
        981,
        952,
        1007,
        980,
        1013,
        1009,
        1019,
        981,
        879,
        725,
        725,
        689,
        689,
        827,
        784,
        970,
        976,
        758,
        923,
        890,
        1029,
        1070,
        1035,
        1122,
        1105,
        954,
        881,
        813,
        774,
        1017,
        929,
        875,
        828,
        764,
        815,
        722,
        772,
        964,
        1031,
        982,
        802,
        737,
        910,
        845,
        1080,
        1121,
        979,
        912,
        761,
        748,
        1015,
        800,
        921,
        933,
        1166,
        1154,
        859,
        1023,
        1107,
        783,
        805,
        995,
        1034,
        1089,
        923,
        705,
        846,
        771,
        779,
        956,
        791,
        741,
        819,
        880,
        1073,
        846,
        807,
        817,
        1018,
        943,
        879,
        922,
        1004,
        1062,
        1067,
        1029,
        945,
        757,
        706,
        762,
        735,
        850,
        814,
        715,
        914,
        778,
        893,
        992,
        955,
        1024,
        956,
        799,
        826,
        787,
        888,
        1006,
        966,
        1065,
        992,
        961,
        1042,
        850,
        840,
        945,
        905,
        842,
        870,
        714,
        733,
        794,
        728,
        791,
        1010,
        1005,
        1019,
        1023,
        884,
        918,
        767,
        737,
        1202,
        964,
        793,
        821,
        682,
        700,
        730,
        841,
        980,
        891,
        1063,
        1019,
        960,
        1063,
        750,
        933,
        1108,
        926,
        1092,
        990,
        962,
        1119,
        974,
        901,
        1016,
        996,
        907,
        735,
        726,
        789,
        749,
        827,
        800,
        727,
        769,
        837,
        715,
        790,
        929,
        871,
        963,
        1070,
        997,
        962,
        924,
        909,
        941,
        977,
        923,
        920,
        790,
        696,
        819,
        823,
        990,
        1019,
        964,
        1094,
        892,
        803,
        953,
        763,
        717,
        859,
        745,
        843
      ],
      "WindowCenter": [
        355,
        354,
        355,
        353,
        354,
        355,
        355,
        355,
        354,
        355,
        356,
        355,
        355,
        355,
        355,
        354,
        354,
        354,
        354,
        352,
        355,
        350,
        350,
        352,
        353,
        355,
        356,
