{
  "AcquisitionMatrixPE": 96,
  "AcquisitionNumber": 1,
  "BandwidthPerPixelPhaseEncode": 18.939,
  "BaseResolution": 96,
  "BodyPartExamined": "BRAIN",
  "ConsistencyInfo": "N4_VE11C_LATEST_20160120",
  "ConversionSoftware": "dcm2niix",
  "ConversionSoftwareVersion": "v1.0.20171215 (OpenJPEG build) GCC6.3.0",
  "DerivedVendorReportedEchoSpacing": 0.000550011,
  "DeviceSerialNumber": "66112",
  "DwellTime": 2.2e-06,
  "EchoTime": 0.033,
  "EchoTrainLength": 96,
  "EffectiveEchoSpacing": 0.000550011,
  "FlipAngle": 59,
  "ImageOrientationPatientDICOM": [
    0.998137,
    0.059023,
    0.0154548,
    -0.0593003,
    0.998075,
    0.0181458
  ],
  "ImageType": [
    "ORIGINAL",
    "PRIMARY",
    "FMRI",
    "NONE",
    "ND",
    "NORM",
    "MOSAIC"
  ],
  "InPlanePhaseEncodingDirectionDICOM": "COL",
  "InstitutionAddress": "Maynard_3_Hanover_NH_US_03755",
  "InstitutionName": "Dartmouth_College_-_PBS",
  "InstitutionalDepartmentName": "Department",
  "MRAcquisitionType": "2D",
  "MagneticFieldStrength": 3,
  "Manufacturer": "Siemens",
  "ManufacturersModelName": "Prisma",
  "Modality": "MR",
  "MultibandAccelerationFactor": 4,
  "PartialFourier": 1,
  "PatientPosition": "HFS",
  "PercentPhaseFOV": 100,
  "PhaseEncodingDirection": "j-",
  "PhaseEncodingSteps": 96,
  "PhaseResolution": 1,
  "PixelBandwidth": 2365,
  "ProcedureStepDescription": "Gobbini_Matteo_1038_hyperface",
  "ProtocolName": "func_run-06_task-visualmemory",
  "PulseSequenceDetails": "%SiemensSeq%_ep2d_bold",
  "ReceiveCoilActiveElements": "HEA;HEP",
  "ReceiveCoilName": "Head_32",
  "ReconMatrixPE": 96,
  "RepetitionTime": 1,
  "SAR": 0.0564531,
  "ScanOptions": "FS",
  "ScanningSequence": "EP",
  "SequenceName": "_epfid2d1_96",
  "SequenceVariant": "SK",
  "SeriesDescription": "func_run-06_task-visualmemory",
  "SeriesNumber": 42,
  "ShimSetting": [
    4141,
    -7709,
    -7312,
    657,
    19,
    71,
    98,
    31
  ],
  "SliceThickness": 2.5,
  "SliceTiming": [
    0.735,
    0,
    0.49,
    0.0825,
    0.5725,
    0.165,
    0.655,
    0.3275,
    0.8175,
    0.41,
    0.9,
    0.245,
    0.735,
    0,
    0.49,
    0.0825,
    0.5725,
    0.165,
    0.655,
    0.3275,
    0.8175,
    0.41,
    0.9,
    0.245,
    0.735,
    0,
    0.49,
    0.0825,
    0.5725,
    0.165,
    0.655,
    0.3275,
    0.8175,
    0.41,
    0.9,
    0.245,
    0.735,
    0,
    0.49,
    0.0825,
    0.5725,
    0.165,
    0.655,
    0.3275,
    0.8175,
    0.41,
    0.9,
    0.245
  ],
  "SoftwareVersions": "syngo_MR_E11",
  "SpacingBetweenSlices": 2.5,
  "StationName": "AWP66112",
  "TotalReadoutTime": 0.0522511,
  "TxRefAmp": 256.689,
  "time": {
    "samples": {
      "AcquisitionNumber": [
        1,
        2,
        3,
        4,
        5,
        6,
        7,
        8,
        9,
        10,
        11,
        12,
        13,
        14,
        15,
        16,
        17,
        18,
        19,
        20,
        21,
        22,
        23,
        24,
        25,
        26,
        27,
        28,
        29,
        30,
        31,
        32,
        33,
        34,
        35,
        36,
        37,
        38,
        39,
        40,
        41,
        42,
        43,
        44,
        45,
        46,
        47,
        48,
        49,
        50,
        51,
        52,
        53,
        54,
        55,
        56,
        57,
        58,
        59,
        60,
        61,
        62,
        63,
        64,
        65,
        66,
        67,
        68,
        69,
        70,
        71,
        72,
        73,
        74,
        75,
        76,
        77,
        78,
        79,
        80,
        81,
        82,
        83,
        84,
        85,
        86,
        87,
        88,
        89,
        90,
        91,
        92,
        93,
        94,
        95,
        96,
        97,
        98,
        99,
        100,
        101,
        102,
        103,
        104,
        105,
        106,
        107,
        108,
        109,
        110,
        111,
        112,
        113,
        114,
        115,
        116,
        117,
        118,
        119,
        120,
        121,
        122,
        123,
        124,
        125,
        126,
        127,
        128,
        129,
        130,
        131,
        132,
        133,
        134,
        135,
        136,
        137,
        138,
        139,
        140,
        141,
        142,
        143,
        144,
        145,
        146,
        147,
        148,
        149,
        150,
        151,
        152,
        153,
        154,
        155,
        156,
        157,
        158,
        159,
        160,
        161,
        162,
        163,
        164,
        165,
        166,
        167,
        168,
        169,
        170,
        171,
        172,
        173,
        174,
        175,
        176,
        177,
        178,
        179,
        180,
        181,
        182,
        183,
        184,
        185,
        186,
        187,
        188,
        189,
        190,
        191,
        192,
        193,
        194,
        195,
        196,
        197,
        198,
        199,
        200,
        201,
        202,
        203,
        204,
        205,
        206,
        207,
        208,
        209,
        210,
        211,
        212,
        213,
        214,
        215,
        216,
        217,
        218,
        219,
        220,
        221,
        222,
        223,
        224,
        225,
        226,
        227,
        228,
        229,
        230,
        231,
        232,
        233,
        234,
        235,
        236,
        237,
        238,
        239,
        240,
        241,
        242,
        243,
        244,
        245,
        246,
        247,
        248,
        249,
        250,
        251,
        252,
        253,
        254,
        255,
        256,
        257,
        258,
        259,
        260,
        261,
        262,
        263,
        264,
        265,
        266,
        267,
        268,
        269,
        270,
        271,
        272,
        273,
        274,
        275,
        276,
        277,
        278,
        279,
        280,
        281,
        282,
        283,
        284,
        285,
        286,
        287,
        288
      ],
      "AcquisitionTime": [
        "120209.697500",
        "120210.697500",
        "120211.697500",
        "120212.697500",
        "120213.697500",
        "120214.697500",
        "120215.697500",
        "120216.697500",
        "120217.697500",
        "120218.697500",
        "120219.697500",
        "120220.697500",
        "120221.697500",
        "120222.697500",
        "120223.697500",
        "120224.697500",
        "120225.697500",
        "120226.697500",
        "120227.697500",
        "120228.697500",
        "120229.697500",
        "120230.697500",
        "120231.697500",
        "120232.697500",
        "120233.697500",
        "120234.697500",
        "120235.697500",
        "120236.697500",
        "120237.697500",
        "120238.697500",
        "120239.697500",
        "120240.697500",
        "120241.697500",
        "120242.697500",
        "120243.697500",
        "120244.697500",
        "120245.697500",
        "120246.697500",
        "120247.697500",
        "120248.697500",
        "120249.697500",
        "120250.697500",
        "120251.697500",
        "120252.697500",
        "120253.697500",
        "120254.697500",
        "120255.697500",
        "120256.697500",
        "120257.697500",
        "120258.697500",
        "120259.697500",
        "120300.697500",
        "120301.697500",
        "120302.697500",
        "120303.697500",
        "120304.697500",
        "120305.697500",
        "120306.697500",
        "120307.697500",
        "120308.697500",
        "120309.697500",
        "120310.697500",
        "120311.697500",
        "120312.697500",
        "120313.697500",
        "120314.697500",
        "120315.697500",
        "120316.697500",
        "120317.697500",
        "120318.697500",
        "120319.697500",
        "120320.697500",
        "120321.697500",
        "120322.697500",
        "120323.697500",
        "120324.697500",
        "120325.697500",
        "120326.697500",
        "120327.697500",
        "120328.697500",
        "120329.697500",
        "120330.697500",
        "120331.697500",
        "120332.697500",
        "120333.697500",
        "120334.697500",
        "120335.697500",
        "120336.697500",
        "120337.697500",
        "120338.697500",
        "120339.697500",
        "120340.697500",
        "120341.697500",
        "120342.697500",
        "120343.697500",
        "120344.697500",
        "120345.697500",
        "120346.697500",
        "120347.697500",
        "120348.697500",
        "120349.697500",
        "120350.697500",
        "120351.697500",
        "120352.697500",
        "120353.697500",
        "120354.697500",
        "120355.697500",
        "120356.697500",
        "120357.697500",
        "120358.697500",
        "120359.697500",
        "120400.697500",
        "120401.697500",
        "120402.697500",
        "120403.697500",
        "120404.697500",
        "120405.697500",
        "120406.697500",
        "120407.697500",
        "120408.697500",
        "120409.697500",
        "120410.697500",
        "120411.697500",
        "120412.697500",
        "120413.697500",
        "120414.697500",
        "120415.697500",
        "120416.697500",
        "120417.697500",
        "120418.697500",
        "120419.697500",
        "120420.697500",
        "120421.697500",
        "120422.697500",
        "120423.697500",
        "120424.697500",
        "120425.697500",
        "120426.697500",
        "120427.697500",
        "120428.697500",
        "120429.697500",
        "120430.697500",
        "120431.697500",
        "120432.697500",
        "120433.697500",
        "120434.697500",
        "120435.697500",
        "120436.697500",
        "120437.697500",
        "120438.697500",
        "120439.697500",
        "120440.697500",
        "120441.697500",
        "120442.697500",
        "120443.697500",
        "120444.697500",
        "120445.697500",
        "120446.697500",
        "120447.697500",
        "120448.697500",
        "120449.697500",
        "120450.697500",
        "120451.697500",
        "120452.697500",
        "120453.697500",
        "120454.697500",
        "120455.697500",
        "120456.697500",
        "120457.697500",
        "120458.697500",
        "120459.697500",
        "120500.697500",
        "120501.697500",
        "120502.697500",
        "120503.697500",
        "120504.697500",
        "120505.697500",
        "120506.697500",
        "120507.697500",
        "120508.697500",
        "120509.697500",
        "120510.697500",
        "120511.697500",
        "120512.697500",
        "120513.697500",
        "120514.697500",
        "120515.697500",
        "120516.697500",
        "120517.697500",
        "120518.697500",
        "120519.697500",
        "120520.697500",
        "120521.697500",
        "120522.697500",
        "120523.697500",
        "120524.697500",
        "120525.697500",
        "120526.697500",
        "120527.697500",
        "120528.697500",
        "120529.697500",
        "120530.697500",
        "120531.697500",
        "120532.697500",
        "120533.697500",
        "120534.697500",
        "120535.697500",
        "120536.697500",
        "120537.697500",
        "120538.697500",
        "120539.697500",
        "120540.697500",
        "120541.697500",
        "120542.697500",
        "120543.697500",
        "120544.697500",
        "120545.697500",
        "120546.697500",
        "120547.697500",
        "120548.697500",
        "120549.697500",
        "120550.697500",
        "120551.697500",
        "120552.697500",
        "120553.697500",
        "120554.697500",
        "120555.697500",
        "120556.697500",
        "120557.697500",
        "120558.697500",
        "120559.697500",
        "120600.697500",
        "120601.697500",
        "120602.697500",
        "120603.697500",
        "120604.697500",
        "120605.697500",
        "120606.697500",
        "120607.697500",
        "120608.697500",
        "120609.697500",
        "120610.697500",
        "120611.697500",
        "120612.697500",
        "120613.697500",
        "120614.697500",
        "120615.697500",
        "120616.697500",
        "120617.697500",
        "120618.697500",
        "120619.697500",
        "120620.697500",
        "120621.697500",
        "120622.697500",
        "120623.697500",
        "120624.697500",
        "120625.697500",
        "120626.697500",
        "120627.697500",
        "120628.697500",
        "120629.697500",
        "120630.697500",
        "120631.697500",
        "120632.697500",
        "120633.697500",
        "120634.697500",
        "120635.697500",
        "120636.697500",
        "120637.697500",
        "120638.697500",
        "120639.697500",
        "120640.697500",
        "120641.697500",
        "120642.697500",
        "120643.697500",
        "120644.697500",
        "120645.697500",
        "120646.697500",
        "120647.697500",
        "120648.697500",
        "120649.697500",
        "120650.697500",
        "120651.697500",
        "120652.697500",
        "120653.697500",
        "120654.697500",
        "120655.697500",
        "120656.697500"
      ],
      "ContentTime": [
        "120211.347000",
        "120212.129000",
        "120213.168000",
        "120214.156000",
        "120215.146000",
        "120216.105000",
        "120217.187000",
        "120218.159000",
        "120219.122000",
        "120220.128000",
        "120221.144000",
        "120222.153000",
        "120223.179000",
        "120224.135000",
        "120225.131000",
        "120226.131000",
        "120227.115000",
        "120228.133000",
        "120229.151000",
        "120230.115000",
        "120231.150000",
        "120232.174000",
        "120233.129000",
        "120234.127000",
        "120235.146000",
        "120236.141000",
        "120237.140000",
        "120238.128000",
        "120239.122000",
        "120240.122000",
        "120241.125000",
        "120242.127000",
        "120243.131000",
        "120244.122000",
        "120245.126000",
        "120246.119000",
        "120247.160000",
        "120248.163000",
        "120249.161000",
        "120250.119000",
        "120251.122000",
        "120252.201000",
        "120253.120000",
        "120254.123000",
        "120255.127000",
        "120256.119000",
        "120257.116000",
        "120258.127000",
        "120259.184000",
        "120300.122000",
        "120301.127000",
        "120302.141000",
        "120303.115000",
        "120304.123000",
        "120305.117000",
        "120306.147000",
        "120307.117000",
        "120308.138000",
        "120309.128000",
        "120310.119000",
        "120311.141000",
        "120312.132000",
        "120313.118000",
        "120314.113000",
        "120315.122000",
        "120316.123000",
        "120317.110000",
        "120318.118000",
        "120319.120000",
        "120320.177000",
        "120321.107000",
        "120322.137000",
        "120323.119000",
        "120324.124000",
        "120325.129000",
        "120326.117000",
        "120327.102000",
        "120328.126000",
        "120329.126000",
        "120330.129000",
        "120331.127000",
        "120332.117000",
        "120333.176000",
        "120334.118000",
        "120335.116000",
        "120336.138000",
        "120337.162000",
        "120338.121000",
        "120339.150000",
        "120340.111000",
        "120341.149000",
        "120342.126000",
        "120343.132000",
        "120344.174000",
        "120345.125000",
        "120346.129000",
        "120347.119000",
        "120348.132000",
        "120349.180000",
        "120350.117000",
        "120351.134000",
        "120352.133000",
        "120353.122000",
        "120354.126000",
        "120355.124000",
        "120356.140000",
        "120357.137000",
        "120358.133000",
        "120359.154000",
        "120400.141000",
        "120401.159000",
        "120402.171000",
        "120403.140000",
        "120404.151000",
        "120405.149000",
        "120406.160000",
        "120407.151000",
        "120408.162000",
        "120409.169000",
        "120410.143000",
        "120411.191000",
        "120412.135000",
        "120413.143000",
        "120414.131000",
        "120415.170000",
        "120416.121000",
        "120417.146000",
        "120418.143000",
        "120419.144000",
        "120420.144000",
        "120421.128000",
        "120422.110000",
        "120423.144000",
        "120424.144000",
        "120425.116000",
        "120426.153000",
        "120427.137000",
        "120428.137000",
        "120429.164000",
        "120430.136000",
        "120431.143000",
        "120432.145000",
        "120433.162000",
        "120434.132000",
        "120435.136000",
        "120436.160000",
        "120437.131000",
        "120438.130000",
        "120439.112000",
        "120440.131000",
        "120441.172000",
        "120442.205000",
        "120443.146000",
        "120444.123000",
        "120445.165000",
        "120446.123000",
        "120447.139000",
        "120448.121000",
        "120449.113000",
        "120450.124000",
        "120451.148000",
        "120452.163000",
        "120453.144000",
        "120454.129000",
        "120455.128000",
        "120456.129000",
        "120457.120000",
        "120458.127000",
        "120459.161000",
        "120500.152000",
        "120501.155000",
        "120502.130000",
        "120503.162000",
        "120504.159000",
        "120505.136000",
        "120506.141000",
        "120507.178000",
        "120508.123000",
        "120509.144000",
        "120510.130000",
        "120511.129000",
        "120512.132000",
        "120513.155000",
        "120514.122000",
        "120515.134000",
        "120516.127000",
        "120517.118000",
        "120518.171000",
        "120519.162000",
        "120520.170000",
        "120521.163000",
        "120522.122000",
        "120523.132000",
        "120524.146000",
        "120525.120000",
        "120526.124000",
        "120527.129000",
        "120528.122000",
        "120529.209000",
        "120530.150000",
        "120531.132000",
        "120532.143000",
        "120533.127000",
        "120534.134000",
        "120535.133000",
        "120536.143000",
        "120537.140000",
        "120538.162000",
        "120539.134000",
        "120540.154000",
        "120541.138000",
        "120542.153000",
        "120543.138000",
        "120544.127000",
        "120545.119000",
        "120546.119000",
        "120547.125000",
        "120548.167000",
        "120549.181000",
        "120550.137000",
        "120551.127000",
        "120552.130000",
        "120553.125000",
        "120554.131000",
        "120555.120000",
        "120556.154000",
        "120557.119000",
        "120558.129000",
        "120559.140000",
        "120600.120000",
        "120601.126000",
        "120602.145000",
        "120603.118000",
        "120604.136000",
        "120605.132000",
        "120606.130000",
        "120607.122000",
        "120608.170000",
        "120609.129000",
        "120610.118000",
        "120611.131000",
        "120612.141000",
        "120613.128000",
        "120614.141000",
        "120615.174000",
        "120616.126000",
        "120617.137000",
        "120618.130000",
        "120619.115000",
        "120620.125000",
        "120621.137000",
        "120622.177000",
        "120623.113000",
        "120624.124000",
        "120625.150000",
        "120626.142000",
        "120627.138000",
        "120628.107000",
        "120629.131000",
        "120630.192000",
        "120631.121000",
        "120632.116000",
        "120633.146000",
        "120634.149000",
        "120635.147000",
        "120636.149000",
        "120637.136000",
        "120638.122000",
        "120639.115000",
        "120640.106000",
        "120641.137000",
        "120642.116000",
        "120643.128000",
        "120644.167000",
        "120645.126000",
        "120646.107000",
        "120647.166000",
        "120648.133000",
        "120649.164000",
        "120650.179000",
        "120651.139000",
        "120652.137000",
        "120653.128000",
        "120654.134000",
        "120655.129000",
        "120656.185000",
        "120657.112000",
        "120658.162000"
      ],
      "InstanceCreationTime": [
        "120211.347000",
        "120212.129000",
        "120213.168000",
        "120214.156000",
        "120215.146000",
        "120216.105000",
        "120217.187000",
        "120218.159000",
        "120219.122000",
        "120220.128000",
        "120221.144000",
        "120222.153000",
        "120223.179000",
        "120224.135000",
        "120225.131000",
        "120226.131000",
        "120227.115000",
        "120228.133000",
        "120229.151000",
        "120230.115000",
        "120231.150000",
        "120232.174000",
        "120233.129000",
        "120234.127000",
        "120235.146000",
        "120236.141000",
        "120237.140000",
        "120238.128000",
        "120239.122000",
        "120240.122000",
        "120241.125000",
        "120242.127000",
        "120243.131000",
        "120244.122000",
        "120245.126000",
        "120246.119000",
        "120247.160000",
        "120248.163000",
        "120249.161000",
        "120250.119000",
        "120251.122000",
        "120252.201000",
        "120253.120000",
        "120254.123000",
        "120255.127000",
        "120256.119000",
        "120257.116000",
        "120258.127000",
        "120259.184000",
        "120300.122000",
        "120301.127000",
        "120302.141000",
        "120303.115000",
        "120304.123000",
        "120305.117000",
        "120306.147000",
        "120307.117000",
        "120308.138000",
        "120309.128000",
        "120310.119000",
        "120311.141000",
        "120312.132000",
        "120313.118000",
        "120314.113000",
        "120315.122000",
        "120316.123000",
        "120317.110000",
        "120318.118000",
        "120319.120000",
        "120320.177000",
        "120321.107000",
        "120322.137000",
        "120323.119000",
        "120324.124000",
        "120325.129000",
        "120326.117000",
        "120327.102000",
        "120328.126000",
        "120329.126000",
        "120330.129000",
        "120331.127000",
        "120332.117000",
        "120333.176000",
        "120334.118000",
        "120335.116000",
        "120336.138000",
        "120337.162000",
        "120338.121000",
        "120339.150000",
        "120340.111000",
        "120341.149000",
        "120342.126000",
        "120343.132000",
        "120344.174000",
        "120345.125000",
        "120346.129000",
        "120347.119000",
        "120348.132000",
        "120349.180000",
        "120350.117000",
        "120351.134000",
        "120352.133000",
        "120353.122000",
        "120354.126000",
        "120355.124000",
        "120356.140000",
        "120357.137000",
        "120358.133000",
        "120359.154000",
        "120400.141000",
        "120401.159000",
        "120402.171000",
        "120403.140000",
        "120404.151000",
        "120405.149000",
        "120406.160000",
        "120407.151000",
        "120408.162000",
        "120409.169000",
        "120410.143000",
        "120411.191000",
        "120412.135000",
        "120413.143000",
        "120414.131000",
        "120415.170000",
        "120416.121000",
        "120417.146000",
        "120418.143000",
        "120419.144000",
        "120420.144000",
        "120421.128000",
        "120422.110000",
        "120423.144000",
        "120424.144000",
        "120425.116000",
        "120426.153000",
        "120427.137000",
        "120428.137000",
        "120429.164000",
        "120430.136000",
        "120431.143000",
        "120432.145000",
        "120433.162000",
        "120434.132000",
        "120435.136000",
        "120436.160000",
        "120437.131000",
        "120438.130000",
        "120439.112000",
        "120440.131000",
        "120441.172000",
        "120442.205000",
        "120443.146000",
        "120444.123000",
        "120445.165000",
        "120446.123000",
        "120447.139000",
        "120448.121000",
        "120449.113000",
        "120450.124000",
        "120451.148000",
        "120452.163000",
        "120453.144000",
        "120454.129000",
        "120455.128000",
        "120456.129000",
        "120457.120000",
        "120458.127000",
        "120459.161000",
        "120500.152000",
        "120501.155000",
        "120502.130000",
        "120503.162000",
        "120504.159000",
        "120505.136000",
        "120506.141000",
        "120507.178000",
        "120508.123000",
        "120509.144000",
        "120510.130000",
        "120511.129000",
        "120512.132000",
        "120513.155000",
        "120514.122000",
        "120515.134000",
        "120516.127000",
        "120517.118000",
        "120518.171000",
        "120519.162000",
        "120520.170000",
        "120521.163000",
        "120522.122000",
        "120523.132000",
        "120524.146000",
        "120525.120000",
        "120526.124000",
        "120527.129000",
        "120528.122000",
        "120529.209000",
        "120530.150000",
        "120531.132000",
        "120532.143000",
        "120533.127000",
        "120534.134000",
        "120535.133000",
        "120536.143000",
        "120537.140000",
        "120538.162000",
        "120539.134000",
        "120540.154000",
        "120541.138000",
        "120542.153000",
        "120543.138000",
        "120544.127000",
        "120545.119000",
        "120546.119000",
        "120547.125000",
        "120548.167000",
        "120549.181000",
        "120550.137000",
        "120551.127000",
        "120552.130000",
        "120553.125000",
        "120554.131000",
        "120555.120000",
        "120556.154000",
        "120557.119000",
        "120558.129000",
        "120559.140000",
        "120600.120000",
        "120601.126000",
        "120602.145000",
        "120603.118000",
        "120604.136000",
        "120605.132000",
        "120606.130000",
        "120607.122000",
        "120608.170000",
        "120609.129000",
        "120610.118000",
        "120611.131000",
        "120612.141000",
        "120613.128000",
        "120614.141000",
        "120615.174000",
        "120616.126000",
        "120617.137000",
        "120618.130000",
        "120619.115000",
        "120620.125000",
        "120621.137000",
        "120622.177000",
        "120623.113000",
        "120624.124000",
        "120625.150000",
        "120626.142000",
        "120627.138000",
        "120628.107000",
        "120629.131000",
        "120630.192000",
        "120631.121000",
        "120632.116000",
        "120633.146000",
        "120634.149000",
        "120635.147000",
        "120636.149000",
        "120637.136000",
        "120638.122000",
        "120639.115000",
        "120640.106000",
        "120641.137000",
        "120642.116000",
        "120643.128000",
        "120644.167000",
        "120645.126000",
        "120646.107000",
        "120647.166000",
        "120648.133000",
        "120649.164000",
        "120650.179000",
        "120651.139000",
        "120652.137000",
        "120653.128000",
        "120654.134000",
        "120655.129000",
        "120656.185000",
        "120657.112000",
        "120658.162000"
      ],
      "InstanceNumber": [
        1,
        2,
        3,
        4,
        5,
        6,
        7,
        8,
        9,
        10,
        11,
        12,
        13,
        14,
        15,
        16,
        17,
        18,
        19,
        20,
        21,
        22,
        23,
        24,
        25,
        26,
        27,
        28,
        29,
        30,
        31,
        32,
        33,
        34,
        35,
        36,
        37,
        38,
        39,
        40,
        41,
        42,
        43,
        44,
        45,
        46,
        47,
        48,
        49,
        50,
        51,
        52,
        53,
        54,
        55,
        56,
        57,
        58,
        59,
        60,
        61,
        62,
        63,
        64,
        65,
        66,
        67,
        68,
        69,
        70,
        71,
        72,
        73,
        74,
        75,
        76,
        77,
        78,
        79,
        80,
        81,
        82,
        83,
        84,
        85,
        86,
        87,
        88,
        89,
        90,
        91,
        92,
        93,
        94,
        95,
        96,
        97,
        98,
        99,
        100,
        101,
        102,
        103,
        104,
        105,
        106,
        107,
        108,
        109,
        110,
        111,
        112,
        113,
        114,
        115,
        116,
        117,
        118,
        119,
        120,
        121,
        122,
        123,
        124,
        125,
        126,
        127,
        128,
        129,
        130,
        131,
        132,
        133,
        134,
        135,
        136,
        137,
        138,
        139,
        140,
        141,
        142,
        143,
        144,
        145,
        146,
        147,
        148,
        149,
        150,
        151,
        152,
        153,
        154,
        155,
        156,
