{
  "AcquisitionMatrixPE": 96,
  "AcquisitionNumber": 1,
  "BandwidthPerPixelPhaseEncode": 18.939,
  "BaseResolution": 96,
  "BodyPartExamined": "BRAIN",
  "ConsistencyInfo": "N4_VE11C_LATEST_20160120",
  "ConversionSoftware": "dcm2niix",
  "ConversionSoftwareVersion": "v1.0.20171215 (OpenJPEG build) GCC6.3.0",
  "DerivedVendorReportedEchoSpacing": 0.000550011,
  "DeviceSerialNumber": "66112",
  "DwellTime": 2.2e-06,
  "EchoTime": 0.033,
  "EchoTrainLength": 96,
  "EffectiveEchoSpacing": 0.000550011,
  "FlipAngle": 59,
  "ImageOrientationPatientDICOM": [
    0.998137,
    0.059023,
    0.0154548,
    -0.0593003,
    0.998075,
    0.0181458
  ],
  "ImageType": [
    "ORIGINAL",
    "PRIMARY",
    "FMRI",
    "NONE",
    "ND",
    "NORM",
    "MOSAIC"
  ],
  "InPlanePhaseEncodingDirectionDICOM": "COL",
  "InstitutionAddress": "Maynard_3_Hanover_NH_US_03755",
  "InstitutionName": "Dartmouth_College_-_PBS",
  "InstitutionalDepartmentName": "Department",
  "MRAcquisitionType": "2D",
  "MagneticFieldStrength": 3,
  "Manufacturer": "Siemens",
  "ManufacturersModelName": "Prisma",
  "Modality": "MR",
  "MultibandAccelerationFactor": 4,
  "PatientPosition": "HFS",
  "PercentPhaseFOV": 100,
  "PhaseEncodingDirection": "j-",
  "PhaseEncodingSteps": 96,
  "PhaseResolution": 1,
  "PixelBandwidth": 2365,
  "ProcedureStepDescription": "Gobbini_Matteo_1038_hyperface",
  "ProtocolName": "func_run-08_task-visualmemory",
  "PulseSequenceDetails": "%SiemensSeq%_ep2d_bold",
  "ReceiveCoilActiveElements": "HEA;HEP",
  "ReceiveCoilName": "Head_32",
  "ReconMatrixPE": 96,
  "RepetitionTime": 1,
  "SAR": 0.0564531,
  "ScanOptions": "FS",
  "ScanningSequence": "EP",
  "SequenceName": "_epfid2d1_96",
  "SequenceVariant": "SK",
  "SeriesDescription": "func_run-08_task-visualmemory",
  "SeriesNumber": 56,
  "ShimSetting": [
    4141,
    -7709,
    -7312,
    657,
    19,
    71,
    98,
    31
  ],
  "SliceThickness": 2.5,
  "SliceTiming": [
    0.735,
    0,
    0.49,
    0.0825,
    0.5725,
    0.1625,
    0.6525,
    0.3275,
    0.8175,
    0.4075,
    0.8975,
    0.245,
    0.735,
    0,
    0.49,
    0.0825,
    0.5725,
    0.1625,
    0.6525,
    0.3275,
    0.8175,
    0.4075,
    0.8975,
    0.245,
    0.735,
    0,
    0.49,
    0.0825,
    0.5725,
    0.1625,
    0.6525,
    0.3275,
    0.8175,
    0.4075,
    0.8975,
    0.245,
    0.735,
    0,
    0.49,
    0.0825,
    0.5725,
    0.1625,
    0.6525,
    0.3275,
    0.8175,
    0.4075,
    0.8975,
    0.245
  ],
  "SoftwareVersions": "syngo_MR_E11",
  "SpacingBetweenSlices": 2.5,
  "StationName": "AWP66112",
  "TotalReadoutTime": 0.0522511,
  "TxRefAmp": 256.689,
  "time": {
    "samples": {
      "AcquisitionNumber": [
        1,
        2,
        3,
        4,
        5,
        6,
        7,
        8,
        9,
        10,
        11,
        12,
        13,
        14,
        15,
        16,
        17,
        18,
        19,
        20,
        21,
        22,
        23,
        24,
        25,
        26,
        27,
        28,
        29,
        30,
        31,
        32,
        33,
        34,
        35,
        36,
        37,
        38,
        39,
        40,
        41,
        42,
        43,
        44,
        45,
        46,
        47,
        48,
        49,
        50,
        51,
        52,
        53,
        54,
        55,
        56,
        57,
        58,
        59,
        60,
        61,
        62,
        63,
        64,
        65,
        66,
        67,
        68,
        69,
        70,
        71,
        72,
        73,
        74,
        75,
        76,
        77,
        78,
        79,
        80,
        81,
        82,
        83,
        84,
        85,
        86,
        87,
        88,
        89,
        90,
        91,
        92,
        93,
        94,
        95,
        96,
        97,
        98,
        99,
        100,
        101,
        102,
        103,
        104,
        105,
        106,
        107,
        108,
        109,
        110,
        111,
        112,
        113,
        114,
        115,
        116,
        117,
        118,
        119,
        120,
        121,
        122,
        123,
        124,
        125,
        126,
        127,
        128,
        129,
        130,
        131,
        132,
        133,
        134,
        135,
        136,
        137,
        138,
        139,
        140,
        141,
        142,
        143,
        144,
        145,
        146,
        147,
        148,
        149,
        150,
        151,
        152,
        153,
        154,
        155,
        156,
        157,
        158,
        159,
        160,
        161,
        162,
        163,
        164,
        165,
        166,
        167,
        168,
        169,
        170,
        171,
        172,
        173,
        174,
        175,
        176,
        177,
        178,
        179,
        180,
        181,
        182,
        183,
        184,
        185,
        186,
        187,
        188,
        189,
        190,
        191,
        192,
        193,
        194,
        195,
        196,
        197,
        198,
        199,
        200,
        201,
        202,
        203,
        204,
        205,
        206,
        207,
        208,
        209,
        210,
        211,
        212,
        213,
        214,
        215,
        216,
        217,
        218,
        219,
        220,
        221,
        222,
        223,
        224,
        225,
        226,
        227,
        228,
        229,
        230,
        231,
        232,
        233,
        234,
        235,
        236,
        237,
        238,
        239,
        240,
        241,
        242,
        243,
        244,
        245,
        246,
        247,
        248,
        249,
        250,
        251,
        252,
        253,
        254,
        255,
        256,
        257,
        258,
        259,
        260,
        261,
        262,
        263,
        264,
        265,
        266,
        267,
        268,
        269,
        270,
        271,
        272,
        273,
        274,
        275,
        276,
        277,
        278,
        279,
        280,
        281,
        282,
        283,
        284,
        285,
        286,
        287,
        288
      ],
      "AcquisitionTime": [
        "121302.405000",
        "121303.405000",
        "121304.405000",
        "121305.405000",
        "121306.405000",
        "121307.405000",
        "121308.405000",
        "121309.405000",
        "121310.405000",
        "121311.405000",
        "121312.405000",
        "121313.405000",
        "121314.405000",
        "121315.405000",
        "121316.405000",
        "121317.405000",
        "121318.405000",
        "121319.405000",
        "121320.405000",
        "121321.405000",
        "121322.405000",
        "121323.405000",
        "121324.405000",
        "121325.405000",
        "121326.405000",
        "121327.405000",
        "121328.405000",
        "121329.405000",
        "121330.405000",
        "121331.405000",
        "121332.405000",
        "121333.405000",
        "121334.405000",
        "121335.405000",
        "121336.405000",
        "121337.405000",
        "121338.405000",
        "121339.405000",
        "121340.405000",
        "121341.405000",
        "121342.405000",
        "121343.405000",
        "121344.405000",
        "121345.405000",
        "121346.405000",
        "121347.405000",
        "121348.405000",
        "121349.405000",
        "121350.405000",
        "121351.405000",
        "121352.405000",
        "121353.405000",
        "121354.405000",
        "121355.405000",
        "121356.405000",
        "121357.405000",
        "121358.405000",
        "121359.405000",
        "121400.405000",
        "121401.405000",
        "121402.405000",
        "121403.405000",
        "121404.405000",
        "121405.405000",
        "121406.405000",
        "121407.405000",
        "121408.405000",
        "121409.405000",
        "121410.405000",
        "121411.405000",
        "121412.405000",
        "121413.405000",
        "121414.405000",
        "121415.405000",
        "121416.405000",
        "121417.405000",
        "121418.405000",
        "121419.405000",
        "121420.405000",
        "121421.405000",
        "121422.405000",
        "121423.405000",
        "121424.405000",
        "121425.405000",
        "121426.405000",
        "121427.405000",
        "121428.405000",
        "121429.405000",
        "121430.405000",
        "121431.405000",
        "121432.405000",
        "121433.405000",
        "121434.405000",
        "121435.405000",
        "121436.405000",
        "121437.405000",
        "121438.405000",
        "121439.405000",
        "121440.405000",
        "121441.405000",
        "121442.405000",
        "121443.405000",
        "121444.405000",
        "121445.405000",
        "121446.405000",
        "121447.405000",
        "121448.405000",
        "121449.405000",
        "121450.405000",
        "121451.405000",
        "121452.405000",
        "121453.405000",
        "121454.405000",
        "121455.405000",
        "121456.405000",
        "121457.405000",
        "121458.405000",
        "121459.405000",
        "121500.405000",
        "121501.405000",
        "121502.405000",
        "121503.405000",
        "121504.405000",
        "121505.405000",
        "121506.405000",
        "121507.405000",
        "121508.405000",
        "121509.405000",
        "121510.405000",
        "121511.405000",
        "121512.405000",
        "121513.405000",
        "121514.405000",
        "121515.405000",
        "121516.405000",
        "121517.405000",
        "121518.405000",
        "121519.405000",
        "121520.405000",
        "121521.405000",
        "121522.405000",
        "121523.405000",
        "121524.405000",
        "121525.405000",
        "121526.405000",
        "121527.405000",
        "121528.405000",
        "121529.405000",
        "121530.405000",
        "121531.405000",
        "121532.405000",
        "121533.405000",
        "121534.405000",
        "121535.405000",
        "121536.405000",
        "121537.405000",
        "121538.405000",
        "121539.405000",
        "121540.405000",
        "121541.405000",
        "121542.405000",
        "121543.405000",
        "121544.405000",
        "121545.405000",
        "121546.405000",
        "121547.405000",
        "121548.405000",
        "121549.405000",
        "121550.405000",
        "121551.405000",
        "121552.405000",
        "121553.405000",
        "121554.405000",
        "121555.405000",
        "121556.405000",
        "121557.405000",
        "121558.405000",
        "121559.405000",
        "121600.405000",
        "121601.405000",
        "121602.405000",
        "121603.405000",
        "121604.405000",
        "121605.405000",
        "121606.405000",
        "121607.405000",
        "121608.405000",
        "121609.405000",
        "121610.405000",
        "121611.405000",
        "121612.405000",
        "121613.405000",
        "121614.405000",
        "121615.405000",
        "121616.405000",
        "121617.405000",
        "121618.405000",
        "121619.405000",
        "121620.405000",
        "121621.405000",
        "121622.405000",
        "121623.405000",
        "121624.405000",
        "121625.405000",
        "121626.405000",
        "121627.405000",
        "121628.405000",
        "121629.405000",
        "121630.405000",
        "121631.405000",
        "121632.405000",
        "121633.405000",
        "121634.405000",
        "121635.405000",
        "121636.405000",
        "121637.405000",
        "121638.405000",
        "121639.405000",
        "121640.405000",
        "121641.405000",
        "121642.405000",
        "121643.405000",
        "121644.405000",
        "121645.405000",
        "121646.405000",
        "121647.405000",
        "121648.405000",
        "121649.405000",
        "121650.405000",
        "121651.405000",
        "121652.405000",
        "121653.405000",
        "121654.405000",
        "121655.405000",
        "121656.405000",
        "121657.405000",
        "121658.405000",
        "121659.405000",
        "121700.405000",
        "121701.405000",
        "121702.405000",
        "121703.405000",
        "121704.405000",
        "121705.405000",
        "121706.405000",
        "121707.405000",
        "121708.405000",
        "121709.405000",
        "121710.405000",
        "121711.405000",
        "121712.405000",
        "121713.405000",
        "121714.405000",
        "121715.405000",
        "121716.405000",
        "121717.405000",
        "121718.405000",
        "121719.405000",
        "121720.405000",
        "121721.405000",
        "121722.405000",
        "121723.405000",
        "121724.405000",
        "121725.405000",
        "121726.405000",
        "121727.405000",
        "121728.405000",
        "121729.405000",
        "121730.405000",
        "121731.405000",
        "121732.405000",
        "121733.405000",
        "121734.405000",
        "121735.405000",
        "121736.405000",
        "121737.405000",
        "121738.405000",
        "121739.405000",
        "121740.405000",
        "121741.405000",
        "121742.405000",
        "121743.405000",
        "121744.405000",
        "121745.405000",
        "121746.405000",
        "121747.405000",
        "121748.405000",
        "121749.405000"
      ],
      "ContentTime": [
        "121304.143000",
        "121305.002000",
        "121305.996000",
        "121306.981000",
        "121308.008000",
        "121309.037000",
        "121310.034000",
        "121311.020000",
        "121312.000000",
        "121312.989000",
        "121313.993000",
        "121315.024000",
        "121316.020000",
        "121316.997000",
        "121318.012000",
        "121318.998000",
        "121320.013000",
        "121321.003000",
        "121321.989000",
        "121323.018000",
        "121323.987000",
        "121324.994000",
        "121326.047000",
        "121326.991000",
        "121328.011000",
        "121328.985000",
        "121330.024000",
        "121331.041000",
        "121331.991000",
        "121332.989000",
        "121333.989000",
        "121335.018000",
        "121336.022000",
        "121336.981000",
        "121338.021000",
        "121338.979000",
        "121339.993000",
        "121341.065000",
        "121342.017000",
        "121343.009000",
        "121344.029000",
        "121345.020000",
        "121346.023000",
        "121347.027000",
        "121348.015000",
        "121349.041000",
        "121349.981000",
        "121351.010000",
        "121352.016000",
        "121353.052000",
        "121353.966000",
        "121354.997000",
        "121355.992000",
        "121357.017000",
        "121357.998000",
        "121359.015000",
        "121359.998000",
        "121401.001000",
        "121401.981000",
        "121402.985000",
        "121403.989000",
        "121404.987000",
        "121406.001000",
        "121407.002000",
        "121408.027000",
        "121409.039000",
        "121410.016000",
        "121411.015000",
        "121411.990000",
        "121413.032000",
        "121414.003000",
        "121414.984000",
        "121416.039000",
        "121416.998000",
        "121418.004000",
        "121418.982000",
        "121420.034000",
        "121421.007000",
        "121422.019000",
        "121423.047000",
        "121423.985000",
        "121424.978000",
        "121426.008000",
        "121427.003000",
        "121428.020000",
        "121428.995000",
        "121429.984000",
        "121431.003000",
        "121432.002000",
        "121432.987000",
        "121433.990000",
        "121435.007000",
        "121436.002000",
        "121437.006000",
        "121438.001000",
        "121438.985000",
        "121440.017000",
        "121441.058000",
        "121442.003000",
        "121443.012000",
        "121444.001000",
        "121445.014000",
        "121446.006000",
        "121446.991000",
        "121448.005000",
        "121448.998000",
        "121450.017000",
        "121451.009000",
        "121452.028000",
        "121452.994000",
        "121454.001000",
        "121455.026000",
        "121456.003000",
        "121457.007000",
        "121457.988000",
        "121459.079000",
        "121500.008000",
        "121501.058000",
        "121502.031000",
        "121503.025000",
        "121504.000000",
        "121505.011000",
        "121506.008000",
        "121506.993000",
        "121507.995000",
        "121509.003000",
        "121509.974000",
        "121511.034000",
        "121511.994000",
        "121512.971000",
        "121514.020000",
        "121515.016000",
        "121515.979000",
        "121516.997000",
        "121518.024000",
        "121519.013000",
        "121520.000000",
        "121520.997000",
        "121521.990000",
        "121523.015000",
        "121523.996000",
        "121525.025000",
        "121525.986000",
        "121527.003000",
        "121527.996000",
        "121529.016000",
        "121530.007000",
        "121531.037000",
        "121532.013000",
        "121533.045000",
        "121534.007000",
        "121535.023000",
        "121536.053000",
        "121537.016000",
        "121538.000000",
        "121538.989000",
        "121540.041000",
        "121541.014000",
        "121542.040000",
        "121543.019000",
        "121543.971000",
        "121545.020000",
        "121545.993000",
        "121547.034000",
        "121548.014000",
        "121549.016000",
        "121550.011000",
        "121551.014000",
        "121552.007000",
        "121553.017000",
        "121553.995000",
        "121555.009000",
        "121555.992000",
        "121556.990000",
        "121558.033000",
        "121559.022000",
        "121600.010000",
        "121601.059000",
        "121602.030000",
        "121602.999000",
        "121603.986000",
        "121604.993000",
        "121606.065000",
        "121606.995000",
        "121607.992000",
        "121609.065000",
        "121610.024000",
        "121611.004000",
        "121612.003000",
        "121613.030000",
        "121614.044000",
        "121614.993000",
        "121616.017000",
        "121616.992000",
        "121617.994000",
        "121618.992000",
        "121620.007000",
        "121621.066000",
        "121622.035000",
        "121623.001000",
        "121624.016000",
        "121625.011000",
        "121626.010000",
        "121627.008000",
        "121627.996000",
        "121629.000000",
        "121629.989000",
        "121631.006000",
        "121632.007000",
        "121633.003000",
        "121634.033000",
        "121635.016000",
        "121636.000000",
        "121637.008000",
        "121638.030000",
        "121639.002000",
        "121640.021000",
        "121640.991000",
        "121641.993000",
        "121642.982000",
        "121644.049000",
        "121645.004000",
        "121646.019000",
        "121646.989000",
        "121647.994000",
        "121649.024000",
        "121650.005000",
        "121650.995000",
        "121652.016000",
        "121653.003000",
        "121654.018000",
        "121655.002000",
        "121655.978000",
        "121656.983000",
        "121657.994000",
        "121659.007000",
        "121700.003000",
        "121701.010000",
        "121701.987000",
        "121703.016000",
        "121704.071000",
        "121705.013000",
        "121706.013000",
        "121707.024000",
        "121707.998000",
        "121709.021000",
        "121710.034000",
        "121711.029000",
        "121712.012000",
        "121712.982000",
        "121714.011000",
        "121714.992000",
        "121716.003000",
        "121716.990000",
        "121718.003000",
        "121719.018000",
        "121720.006000",
        "121720.991000",
        "121722.019000",
        "121722.968000",
        "121724.004000",
        "121724.995000",
        "121726.010000",
        "121727.032000",
        "121728.020000",
        "121729.012000",
        "121730.047000",
        "121731.045000",
        "121732.000000",
        "121732.992000",
        "121734.002000",
        "121734.993000",
        "121735.997000",
        "121736.998000",
        "121738.030000",
        "121739.051000",
        "121740.000000",
        "121741.016000",
        "121742.004000",
        "121742.997000",
        "121744.007000",
        "121745.004000",
        "121745.982000",
        "121747.040000",
        "121748.059000",
        "121749.000000",
        "121750.006000",
        "121751.014000"
      ],
      "InstanceCreationTime": [
        "121304.143000",
        "121305.002000",
        "121305.996000",
        "121306.981000",
        "121308.008000",
        "121309.037000",
        "121310.034000",
        "121311.020000",
        "121312.000000",
        "121312.989000",
        "121313.993000",
        "121315.024000",
        "121316.020000",
        "121316.997000",
        "121318.012000",
        "121318.998000",
        "121320.013000",
        "121321.003000",
        "121321.989000",
        "121323.018000",
        "121323.987000",
        "121324.994000",
        "121326.047000",
        "121326.991000",
        "121328.011000",
        "121328.985000",
        "121330.024000",
        "121331.041000",
        "121331.991000",
        "121332.989000",
        "121333.989000",
        "121335.018000",
        "121336.022000",
        "121336.981000",
        "121338.021000",
        "121338.979000",
        "121339.993000",
        "121341.065000",
        "121342.017000",
        "121343.009000",
        "121344.029000",
        "121345.020000",
        "121346.023000",
        "121347.027000",
        "121348.015000",
        "121349.041000",
        "121349.981000",
        "121351.010000",
        "121352.016000",
        "121353.052000",
        "121353.966000",
        "121354.997000",
        "121355.992000",
        "121357.017000",
        "121357.998000",
        "121359.015000",
        "121359.998000",
        "121401.001000",
        "121401.981000",
        "121402.985000",
        "121403.989000",
        "121404.987000",
        "121406.001000",
        "121407.002000",
        "121408.027000",
        "121409.039000",
        "121410.016000",
        "121411.015000",
        "121411.990000",
        "121413.032000",
        "121414.003000",
        "121414.984000",
        "121416.039000",
        "121416.998000",
        "121418.004000",
        "121418.982000",
        "121420.034000",
        "121421.007000",
        "121422.019000",
        "121423.047000",
        "121423.985000",
        "121424.978000",
        "121426.008000",
        "121427.003000",
        "121428.020000",
        "121428.995000",
        "121429.984000",
        "121431.003000",
        "121432.002000",
        "121432.987000",
        "121433.990000",
        "121435.007000",
        "121436.002000",
        "121437.006000",
        "121438.001000",
        "121438.985000",
        "121440.017000",
        "121441.058000",
        "121442.003000",
        "121443.012000",
        "121444.001000",
        "121445.014000",
        "121446.006000",
        "121446.991000",
        "121448.005000",
        "121448.998000",
        "121450.017000",
        "121451.009000",
        "121452.028000",
        "121452.994000",
        "121454.001000",
        "121455.026000",
        "121456.003000",
        "121457.007000",
        "121457.988000",
        "121459.079000",
        "121500.008000",
        "121501.058000",
        "121502.031000",
        "121503.025000",
        "121504.000000",
        "121505.011000",
        "121506.008000",
        "121506.993000",
        "121507.995000",
        "121509.003000",
        "121509.974000",
        "121511.034000",
        "121511.994000",
        "121512.971000",
        "121514.020000",
        "121515.016000",
        "121515.979000",
        "121516.997000",
        "121518.024000",
        "121519.013000",
        "121520.000000",
        "121520.997000",
        "121521.990000",
        "121523.015000",
        "121523.996000",
        "121525.025000",
        "121525.986000",
        "121527.003000",
        "121527.996000",
        "121529.016000",
        "121530.007000",
        "121531.037000",
        "121532.013000",
        "121533.045000",
        "121534.007000",
        "121535.023000",
        "121536.053000",
        "121537.016000",
        "121538.000000",
        "121538.989000",
        "121540.041000",
        "121541.014000",
        "121542.040000",
        "121543.019000",
        "121543.971000",
        "121545.020000",
        "121545.993000",
        "121547.034000",
        "121548.014000",
        "121549.016000",
        "121550.011000",
        "121551.014000",
        "121552.007000",
        "121553.017000",
        "121553.995000",
        "121555.009000",
        "121555.992000",
        "121556.990000",
        "121558.033000",
        "121559.022000",
        "121600.010000",
        "121601.059000",
        "121602.030000",
        "121602.999000",
        "121603.986000",
        "121604.993000",
        "121606.065000",
        "121606.995000",
        "121607.992000",
        "121609.065000",
        "121610.024000",
        "121611.004000",
        "121612.003000",
        "121613.030000",
        "121614.044000",
        "121614.993000",
        "121616.017000",
        "121616.992000",
        "121617.994000",
        "121618.992000",
        "121620.007000",
        "121621.066000",
        "121622.035000",
        "121623.001000",
        "121624.016000",
        "121625.011000",
        "121626.010000",
        "121627.008000",
        "121627.996000",
        "121629.000000",
        "121629.989000",
        "121631.006000",
        "121632.007000",
        "121633.003000",
        "121634.033000",
        "121635.016000",
        "121636.000000",
        "121637.008000",
        "121638.030000",
        "121639.002000",
        "121640.021000",
        "121640.991000",
        "121641.993000",
        "121642.982000",
        "121644.049000",
        "121645.004000",
        "121646.019000",
        "121646.989000",
        "121647.994000",
        "121649.024000",
        "121650.005000",
        "121650.995000",
        "121652.016000",
        "121653.003000",
        "121654.018000",
        "121655.002000",
        "121655.978000",
        "121656.983000",
        "121657.994000",
        "121659.007000",
        "121700.003000",
        "121701.010000",
        "121701.987000",
        "121703.016000",
        "121704.071000",
        "121705.013000",
        "121706.013000",
        "121707.024000",
        "121707.998000",
        "121709.021000",
        "121710.034000",
        "121711.029000",
        "121712.012000",
        "121712.982000",
        "121714.011000",
        "121714.992000",
        "121716.003000",
        "121716.990000",
        "121718.003000",
        "121719.018000",
        "121720.006000",
        "121720.991000",
        "121722.019000",
        "121722.968000",
        "121724.004000",
        "121724.995000",
        "121726.010000",
        "121727.032000",
        "121728.020000",
        "121729.012000",
        "121730.047000",
        "121731.045000",
        "121732.000000",
        "121732.992000",
        "121734.002000",
        "121734.993000",
        "121735.997000",
        "121736.998000",
        "121738.030000",
        "121739.051000",
        "121740.000000",
        "121741.016000",
        "121742.004000",
        "121742.997000",
        "121744.007000",
        "121745.004000",
        "121745.982000",
        "121747.040000",
        "121748.059000",
        "121749.000000",
        "121750.006000",
        "121751.014000"
      ],
      "InstanceNumber": [
        1,
        2,
        3,
        4,
        5,
        6,
        7,
        8,
        9,
        10,
        11,
        12,
        13,
        14,
        15,
        16,
        17,
        18,
        19,
        20,
        21,
        22,
        23,
        24,
        25,
        26,
        27,
        28,
        29,
        30,
        31,
        32,
        33,
        34,
        35,
        36,
        37,
        38,
        39,
        40,
        41,
        42,
        43,
        44,
        45,
        46,
        47,
        48,
        49,
        50,
        51,
        52,
        53,
        54,
        55,
        56,
        57,
        58,
        59,
        60,
        61,
        62,
        63,
        64,
        65,
        66,
        67,
        68,
        69,
        70,
        71,
        72,
        73,
        74,
        75,
        76,
        77,
        78,
        79,
        80,
        81,
        82,
        83,
        84,
        85,
        86,
        87,
        88,
        89,
        90,
        91,
        92,
        93,
        94,
        95,
        96,
        97,
        98,
        99,
        100,
        101,
        102,
        103,
        104,
        105,
        106,
        107,
        108,
        109,
        110,
        111,
        112,
        113,
        114,
        115,
        116,
        117,
        118,
        119,
        120,
        121,
        122,
        123,
        124,
        125,
        126,
        127,
        128,
        129,
        130,
        131,
        132,
        133,
        134,
        135,
        136,
        137,
        138,
        139,
        140,
        141,
        142,
        143,
        144,
        145,
        146,
        147,
        148,
        149,
        150,
        151,
        152,
        153,
        154,
        155,
        156,
