{
  "AcquisitionMatrixPE": 96,
  "AcquisitionNumber": 1,
  "BandwidthPerPixelPhaseEncode": 18.939,
  "BaseResolution": 96,
  "BodyPartExamined": "BRAIN",
  "ConsistencyInfo": "N4_VE11C_LATEST_20160120",
  "ConversionSoftware": "dcm2niix",
  "ConversionSoftwareVersion": "v1.0.20171215 (OpenJPEG build) GCC6.3.0",
  "DerivedVendorReportedEchoSpacing": 0.000550011,
  "DeviceSerialNumber": "66112",
  "DwellTime": 2.2e-06,
  "EchoTime": 0.033,
  "EchoTrainLength": 96,
  "EffectiveEchoSpacing": 0.000550011,
  "FlipAngle": 59,
  "ImageOrientationPatientDICOM": [
    0.998137,
    0.059023,
    0.0154548,
    -0.0593003,
    0.998075,
    0.0181458
  ],
  "ImageType": [
    "ORIGINAL",
    "PRIMARY",
    "FMRI",
    "NONE",
    "ND",
    "NORM",
    "MOSAIC"
  ],
  "InPlanePhaseEncodingDirectionDICOM": "COL",
  "InstitutionAddress": "Maynard_3_Hanover_NH_US_03755",
  "InstitutionName": "Dartmouth_College_-_PBS",
  "InstitutionalDepartmentName": "Department",
  "MRAcquisitionType": "2D",
  "MagneticFieldStrength": 3,
  "Manufacturer": "Siemens",
  "ManufacturersModelName": "Prisma",
  "Modality": "MR",
  "MultibandAccelerationFactor": 4,
  "PatientPosition": "HFS",
  "PercentPhaseFOV": 100,
  "PhaseEncodingDirection": "j-",
  "PhaseEncodingSteps": 96,
  "PhaseResolution": 1,
  "PixelBandwidth": 2365,
  "ProcedureStepDescription": "Gobbini_Matteo_1038_hyperface",
  "ProtocolName": "func_run-03_task-visualmemory",
  "PulseSequenceDetails": "%SiemensSeq%_ep2d_bold",
  "ReceiveCoilActiveElements": "HEA;HEP",
  "ReceiveCoilName": "Head_32",
  "ReconMatrixPE": 96,
  "RepetitionTime": 1,
  "SAR": 0.0564531,
  "ScanOptions": "FS",
  "ScanningSequence": "EP",
  "SequenceName": "_epfid2d1_96",
  "SequenceVariant": "SK",
  "SeriesDescription": "func_run-03_task-visualmemory",
  "SeriesNumber": 21,
  "ShimSetting": [
    4141,
    -7709,
    -7312,
    657,
    19,
    71,
    98,
    31
  ],
  "SliceThickness": 2.5,
  "SliceTiming": [
    0.735,
    0,
    0.49,
    0.0825,
    0.5725,
    0.1625,
    0.6525,
    0.3275,
    0.8175,
    0.4075,
    0.8975,
    0.245,
    0.735,
    0,
    0.49,
    0.0825,
    0.5725,
    0.1625,
    0.6525,
    0.3275,
    0.8175,
    0.4075,
    0.8975,
    0.245,
    0.735,
    0,
    0.49,
    0.0825,
    0.5725,
    0.1625,
    0.6525,
    0.3275,
    0.8175,
    0.4075,
    0.8975,
    0.245,
    0.735,
    0,
    0.49,
    0.0825,
    0.5725,
    0.1625,
    0.6525,
    0.3275,
    0.8175,
    0.4075,
    0.8975,
    0.245
  ],
  "SoftwareVersions": "syngo_MR_E11",
  "SpacingBetweenSlices": 2.5,
  "StationName": "AWP66112",
  "TotalReadoutTime": 0.0522511,
  "TxRefAmp": 256.689,
  "time": {
    "samples": {
      "AcquisitionNumber": [
        1,
        2,
        3,
        4,
        5,
        6,
        7,
        8,
        9,
        10,
        11,
        12,
        13,
        14,
        15,
        16,
        17,
        18,
        19,
        20,
        21,
        22,
        23,
        24,
        25,
        26,
        27,
        28,
        29,
        30,
        31,
        32,
        33,
        34,
        35,
        36,
        37,
        38,
        39,
        40,
        41,
        42,
        43,
        44,
        45,
        46,
        47,
        48,
        49,
        50,
        51,
        52,
        53,
        54,
        55,
        56,
        57,
        58,
        59,
        60,
        61,
        62,
        63,
        64,
        65,
        66,
        67,
        68,
        69,
        70,
        71,
        72,
        73,
        74,
        75,
        76,
        77,
        78,
        79,
        80,
        81,
        82,
        83,
        84,
        85,
        86,
        87,
        88,
        89,
        90,
        91,
        92,
        93,
        94,
        95,
        96,
        97,
        98,
        99,
        100,
        101,
        102,
        103,
        104,
        105,
        106,
        107,
        108,
        109,
        110,
        111,
        112,
        113,
        114,
        115,
        116,
        117,
        118,
        119,
        120,
        121,
        122,
        123,
        124,
        125,
        126,
        127,
        128,
        129,
        130,
        131,
        132,
        133,
        134,
        135,
        136,
        137,
        138,
        139,
        140,
        141,
        142,
        143,
        144,
        145,
        146,
        147,
        148,
        149,
        150,
        151,
        152,
        153,
        154,
        155,
        156,
        157,
        158,
        159,
        160,
        161,
        162,
        163,
        164,
        165,
        166,
        167,
        168,
        169,
        170,
        171,
        172,
        173,
        174,
        175,
        176,
        177,
        178,
        179,
        180,
        181,
        182,
        183,
        184,
        185,
        186,
        187,
        188,
        189,
        190,
        191,
        192,
        193,
        194,
        195,
        196,
        197,
        198,
        199,
        200,
        201,
        202,
        203,
        204,
        205,
        206,
        207,
        208,
        209,
        210,
        211,
        212,
        213,
        214,
        215,
        216,
        217,
        218,
        219,
        220,
        221,
        222,
        223,
        224,
        225,
        226,
        227,
        228,
        229,
        230,
        231,
        232,
        233,
        234,
        235,
        236,
        237,
        238,
        239,
        240,
        241,
        242,
        243,
        244,
        245,
        246,
        247,
        248,
        249,
        250,
        251,
        252,
        253,
        254,
        255,
        256,
        257,
        258,
        259,
        260,
        261,
        262,
        263,
        264,
        265,
        266,
        267,
        268,
        269,
        270,
        271,
        272,
        273,
        274,
        275,
        276,
        277,
        278,
        279,
        280,
        281,
        282,
        283,
        284,
        285,
        286,
        287,
        288
      ],
      "AcquisitionTime": [
        "114633.582500",
        "114634.582500",
        "114635.582500",
        "114636.582500",
        "114637.582500",
        "114638.582500",
        "114639.582500",
        "114640.582500",
        "114641.582500",
        "114642.582500",
        "114643.582500",
        "114644.582500",
        "114645.582500",
        "114646.582500",
        "114647.582500",
        "114648.582500",
        "114649.582500",
        "114650.582500",
        "114651.582500",
        "114652.582500",
        "114653.582500",
        "114654.582500",
        "114655.582500",
        "114656.582500",
        "114657.582500",
        "114658.582500",
        "114659.582500",
        "114700.582500",
        "114701.582500",
        "114702.582500",
        "114703.582500",
        "114704.582500",
        "114705.582500",
        "114706.582500",
        "114707.582500",
        "114708.582500",
        "114709.582500",
        "114710.582500",
        "114711.582500",
        "114712.582500",
        "114713.582500",
        "114714.582500",
        "114715.582500",
        "114716.582500",
        "114717.582500",
        "114718.582500",
        "114719.582500",
        "114720.582500",
        "114721.582500",
        "114722.582500",
        "114723.582500",
        "114724.582500",
        "114725.582500",
        "114726.582500",
        "114727.582500",
        "114728.582500",
        "114729.582500",
        "114730.582500",
        "114731.582500",
        "114732.582500",
        "114733.582500",
        "114734.582500",
        "114735.582500",
        "114736.582500",
        "114737.582500",
        "114738.582500",
        "114739.582500",
        "114740.582500",
        "114741.582500",
        "114742.582500",
        "114743.582500",
        "114744.582500",
        "114745.582500",
        "114746.582500",
        "114747.582500",
        "114748.582500",
        "114749.582500",
        "114750.582500",
        "114751.582500",
        "114752.582500",
        "114753.582500",
        "114754.582500",
        "114755.582500",
        "114756.582500",
        "114757.582500",
        "114758.582500",
        "114759.582500",
        "114800.582500",
        "114801.582500",
        "114802.582500",
        "114803.582500",
        "114804.582500",
        "114805.582500",
        "114806.582500",
        "114807.582500",
        "114808.582500",
        "114809.582500",
        "114810.582500",
        "114811.582500",
        "114812.582500",
        "114813.582500",
        "114814.582500",
        "114815.582500",
        "114816.582500",
        "114817.582500",
        "114818.582500",
        "114819.582500",
        "114820.582500",
        "114821.582500",
        "114822.582500",
        "114823.582500",
        "114824.582500",
        "114825.582500",
        "114826.582500",
        "114827.582500",
        "114828.582500",
        "114829.582500",
        "114830.582500",
        "114831.582500",
        "114832.582500",
        "114833.582500",
        "114834.582500",
        "114835.582500",
        "114836.582500",
        "114837.582500",
        "114838.582500",
        "114839.582500",
        "114840.582500",
        "114841.582500",
        "114842.582500",
        "114843.582500",
        "114844.582500",
        "114845.582500",
        "114846.582500",
        "114847.582500",
        "114848.582500",
        "114849.582500",
        "114850.582500",
        "114851.582500",
        "114852.582500",
        "114853.582500",
        "114854.582500",
        "114855.582500",
        "114856.582500",
        "114857.582500",
        "114858.582500",
        "114859.582500",
        "114900.582500",
        "114901.582500",
        "114902.582500",
        "114903.582500",
        "114904.582500",
        "114905.582500",
        "114906.582500",
        "114907.582500",
        "114908.582500",
        "114909.582500",
        "114910.582500",
        "114911.582500",
        "114912.582500",
        "114913.582500",
        "114914.582500",
        "114915.582500",
        "114916.582500",
        "114917.582500",
        "114918.582500",
        "114919.582500",
        "114920.582500",
        "114921.582500",
        "114922.582500",
        "114923.582500",
        "114924.582500",
        "114925.582500",
        "114926.582500",
        "114927.582500",
        "114928.582500",
        "114929.582500",
        "114930.582500",
        "114931.582500",
        "114932.582500",
        "114933.582500",
        "114934.582500",
        "114935.582500",
        "114936.582500",
        "114937.582500",
        "114938.582500",
        "114939.582500",
        "114940.582500",
        "114941.582500",
        "114942.582500",
        "114943.582500",
        "114944.582500",
        "114945.582500",
        "114946.582500",
        "114947.582500",
        "114948.582500",
        "114949.582500",
        "114950.582500",
        "114951.582500",
        "114952.582500",
        "114953.582500",
        "114954.582500",
        "114955.582500",
        "114956.582500",
        "114957.582500",
        "114958.582500",
        "114959.582500",
        "115000.582500",
        "115001.582500",
        "115002.582500",
        "115003.582500",
        "115004.582500",
        "115005.582500",
        "115006.582500",
        "115007.582500",
        "115008.582500",
        "115009.582500",
        "115010.582500",
        "115011.582500",
        "115012.582500",
        "115013.582500",
        "115014.582500",
        "115015.582500",
        "115016.582500",
        "115017.582500",
        "115018.582500",
        "115019.582500",
        "115020.582500",
        "115021.582500",
        "115022.582500",
        "115023.582500",
        "115024.582500",
        "115025.582500",
        "115026.582500",
        "115027.582500",
        "115028.582500",
        "115029.582500",
        "115030.582500",
        "115031.582500",
        "115032.582500",
        "115033.582500",
        "115034.582500",
        "115035.582500",
        "115036.582500",
        "115037.582500",
        "115038.582500",
        "115039.582500",
        "115040.582500",
        "115041.582500",
        "115042.582500",
        "115043.582500",
        "115044.582500",
        "115045.582500",
        "115046.582500",
        "115047.582500",
        "115048.582500",
        "115049.582500",
        "115050.582500",
        "115051.582500",
        "115052.582500",
        "115053.582500",
        "115054.582500",
        "115055.582500",
        "115056.582500",
        "115057.582500",
        "115058.582500",
        "115059.582500",
        "115100.582500",
        "115101.582500",
        "115102.582500",
        "115103.582500",
        "115104.582500",
        "115105.582500",
        "115106.582500",
        "115107.582500",
        "115108.582500",
        "115109.582500",
        "115110.582500",
        "115111.582500",
        "115112.582500",
        "115113.582500",
        "115114.582500",
        "115115.582500",
        "115116.582500",
        "115117.582500",
        "115118.582500",
        "115119.582500",
        "115120.582500"
      ],
      "ContentTime": [
        "114634.517000",
        "114635.338000",
        "114636.348000",
        "114637.343000",
        "114638.357000",
        "114639.364000",
        "114640.394000",
        "114641.377000",
        "114642.384000",
        "114643.377000",
        "114644.373000",
        "114645.329000",
        "114646.360000",
        "114647.318000",
        "114648.384000",
        "114649.343000",
        "114650.361000",
        "114651.346000",
        "114652.329000",
        "114653.318000",
        "114654.313000",
        "114655.337000",
        "114656.407000",
        "114657.330000",
        "114658.326000",
        "114659.374000",
        "114700.357000",
        "114701.391000",
        "114702.395000",
        "114703.313000",
        "114704.324000",
        "114705.340000",
        "114706.338000",
        "114707.328000",
        "114708.403000",
        "114709.335000",
        "114710.300000",
        "114711.326000",
        "114712.330000",
        "114713.349000",
        "114714.317000",
        "114715.317000",
        "114716.354000",
        "114717.332000",
        "114718.317000",
        "114719.353000",
        "114720.314000",
        "114721.322000",
        "114722.350000",
        "114723.321000",
        "114724.320000",
        "114725.356000",
        "114726.337000",
        "114727.340000",
        "114728.339000",
        "114729.316000",
        "114730.346000",
        "114731.332000",
        "114732.330000",
        "114733.330000",
        "114734.354000",
        "114735.346000",
        "114736.334000",
        "114737.325000",
        "114738.346000",
        "114739.316000",
        "114740.324000",
        "114741.320000",
        "114742.333000",
        "114743.320000",
        "114744.326000",
        "114745.326000",
        "114746.362000",
        "114747.379000",
        "114748.340000",
        "114749.356000",
        "114750.297000",
        "114751.325000",
        "114752.337000",
        "114753.330000",
        "114754.328000",
        "114755.357000",
        "114756.321000",
        "114757.335000",
        "114758.325000",
        "114759.321000",
        "114800.313000",
        "114801.342000",
        "114802.324000",
        "114803.334000",
        "114804.336000",
        "114805.328000",
        "114806.332000",
        "114807.330000",
        "114808.322000",
        "114809.360000",
        "114810.327000",
        "114811.313000",
        "114812.342000",
        "114813.349000",
        "114814.362000",
        "114815.345000",
        "114816.384000",
        "114817.346000",
        "114818.408000",
        "114819.344000",
        "114820.347000",
        "114821.348000",
        "114822.336000",
        "114823.324000",
        "114824.410000",
        "114825.349000",
        "114826.359000",
        "114827.346000",
        "114828.340000",
        "114829.340000",
        "114830.338000",
        "114831.355000",
        "114832.341000",
        "114833.337000",
        "114834.366000",
        "114835.352000",
        "114836.324000",
        "114837.335000",
        "114838.335000",
        "114839.314000",
        "114840.316000",
        "114841.346000",
        "114842.391000",
        "114843.346000",
        "114844.351000",
        "114845.359000",
        "114846.336000",
        "114847.339000",
        "114848.364000",
        "114849.337000",
        "114850.353000",
        "114851.365000",
        "114852.306000",
        "114853.346000",
        "114854.353000",
        "114855.382000",
        "114856.306000",
        "114857.358000",
        "114858.337000",
        "114859.336000",
        "114900.382000",
        "114901.321000",
        "114902.345000",
        "114903.341000",
        "114904.320000",
        "114905.355000",
        "114906.325000",
        "114907.337000",
        "114908.325000",
        "114909.337000",
        "114910.342000",
        "114911.332000",
        "114912.401000",
        "114913.355000",
        "114914.338000",
        "114915.350000",
        "114916.341000",
        "114917.361000",
        "114918.323000",
        "114919.329000",
        "114920.351000",
        "114921.339000",
        "114922.309000",
        "114923.323000",
        "114924.332000",
        "114925.331000",
        "114926.313000",
        "114927.333000",
        "114928.324000",
        "114929.345000",
        "114930.321000",
        "114931.359000",
        "114932.347000",
        "114933.343000",
        "114934.375000",
        "114935.335000",
        "114936.327000",
        "114937.379000",
        "114938.347000",
        "114939.334000",
        "114940.321000",
        "114941.346000",
        "114942.318000",
        "114943.314000",
        "114944.344000",
        "114945.319000",
        "114946.338000",
        "114947.356000",
        "114948.320000",
        "114949.326000",
        "114950.337000",
        "114951.344000",
        "114952.359000",
        "114953.332000",
        "114954.335000",
        "114955.340000",
        "114956.339000",
        "114957.317000",
        "114958.340000",
        "114959.361000",
        "115000.334000",
        "115001.336000",
        "115002.322000",
        "115003.331000",
        "115004.332000",
        "115005.376000",
        "115006.326000",
        "115007.345000",
        "115008.325000",
        "115009.365000",
        "115010.349000",
        "115011.317000",
        "115012.311000",
        "115013.331000",
        "115014.323000",
        "115015.362000",
        "115016.331000",
        "115017.320000",
        "115018.333000",
        "115019.340000",
        "115020.374000",
        "115021.340000",
        "115022.317000",
        "115023.346000",
        "115024.384000",
        "115025.338000",
        "115026.316000",
        "115027.323000",
        "115028.307000",
        "115029.298000",
        "115030.323000",
        "115031.356000",
        "115032.322000",
        "115033.392000",
        "115034.366000",
        "115035.343000",
        "115036.351000",
        "115037.409000",
        "115038.364000",
        "115039.355000",
        "115040.344000",
        "115041.322000",
        "115042.345000",
        "115043.402000",
        "115044.329000",
        "115045.341000",
        "115046.360000",
        "115047.325000",
        "115048.343000",
        "115049.323000",
        "115050.340000",
        "115051.344000",
        "115052.350000",
        "115053.384000",
        "115054.362000",
        "115055.333000",
        "115056.338000",
        "115057.347000",
        "115058.317000",
        "115059.317000",
        "115100.311000",
        "115101.348000",
        "115102.330000",
        "115103.338000",
        "115104.334000",
        "115105.334000",
        "115106.326000",
        "115107.339000",
        "115108.383000",
        "115109.348000",
        "115110.321000",
        "115111.321000",
        "115112.346000",
        "115113.396000",
        "115114.341000",
        "115115.326000",
        "115116.332000",
        "115117.353000",
        "115118.321000",
        "115119.310000",
        "115120.357000",
        "115121.368000"
      ],
      "InstanceCreationTime": [
        "114634.517000",
        "114635.338000",
        "114636.348000",
        "114637.343000",
        "114638.357000",
        "114639.364000",
        "114640.394000",
        "114641.377000",
        "114642.384000",
        "114643.377000",
        "114644.373000",
        "114645.329000",
        "114646.360000",
        "114647.318000",
        "114648.384000",
        "114649.343000",
        "114650.361000",
        "114651.346000",
        "114652.329000",
        "114653.318000",
        "114654.313000",
        "114655.337000",
        "114656.407000",
        "114657.330000",
        "114658.326000",
        "114659.374000",
        "114700.357000",
        "114701.391000",
        "114702.395000",
        "114703.313000",
        "114704.324000",
        "114705.340000",
        "114706.338000",
        "114707.328000",
        "114708.403000",
        "114709.335000",
        "114710.300000",
        "114711.326000",
        "114712.330000",
        "114713.349000",
        "114714.317000",
        "114715.317000",
        "114716.354000",
        "114717.332000",
        "114718.317000",
        "114719.353000",
        "114720.314000",
        "114721.322000",
        "114722.350000",
        "114723.321000",
        "114724.320000",
        "114725.356000",
        "114726.337000",
        "114727.340000",
        "114728.339000",
        "114729.316000",
        "114730.346000",
        "114731.332000",
        "114732.330000",
        "114733.330000",
        "114734.354000",
        "114735.346000",
        "114736.334000",
        "114737.325000",
        "114738.346000",
        "114739.316000",
        "114740.324000",
        "114741.320000",
        "114742.333000",
        "114743.320000",
        "114744.326000",
        "114745.326000",
        "114746.362000",
        "114747.379000",
        "114748.340000",
        "114749.356000",
        "114750.297000",
        "114751.325000",
        "114752.337000",
        "114753.330000",
        "114754.328000",
        "114755.357000",
        "114756.321000",
        "114757.335000",
        "114758.325000",
        "114759.321000",
        "114800.313000",
        "114801.342000",
        "114802.324000",
        "114803.334000",
        "114804.336000",
        "114805.328000",
        "114806.332000",
        "114807.330000",
        "114808.322000",
        "114809.360000",
        "114810.327000",
        "114811.313000",
        "114812.342000",
        "114813.349000",
        "114814.362000",
        "114815.345000",
        "114816.384000",
        "114817.346000",
        "114818.408000",
        "114819.344000",
        "114820.347000",
        "114821.348000",
        "114822.336000",
        "114823.324000",
        "114824.410000",
        "114825.349000",
        "114826.359000",
        "114827.346000",
        "114828.340000",
        "114829.340000",
        "114830.338000",
        "114831.355000",
        "114832.341000",
        "114833.337000",
        "114834.366000",
        "114835.352000",
        "114836.324000",
        "114837.335000",
        "114838.335000",
        "114839.314000",
        "114840.316000",
        "114841.346000",
        "114842.391000",
        "114843.346000",
        "114844.351000",
        "114845.359000",
        "114846.336000",
        "114847.339000",
        "114848.364000",
        "114849.337000",
        "114850.353000",
        "114851.365000",
        "114852.306000",
        "114853.346000",
        "114854.353000",
        "114855.382000",
        "114856.306000",
        "114857.358000",
        "114858.337000",
        "114859.336000",
        "114900.382000",
        "114901.321000",
        "114902.345000",
        "114903.341000",
        "114904.320000",
        "114905.355000",
        "114906.325000",
        "114907.337000",
        "114908.325000",
        "114909.337000",
        "114910.342000",
        "114911.332000",
        "114912.401000",
        "114913.355000",
        "114914.338000",
        "114915.350000",
        "114916.341000",
        "114917.361000",
        "114918.323000",
        "114919.329000",
        "114920.351000",
        "114921.339000",
        "114922.309000",
        "114923.323000",
        "114924.332000",
        "114925.331000",
        "114926.313000",
        "114927.333000",
        "114928.324000",
        "114929.345000",
        "114930.321000",
        "114931.359000",
        "114932.347000",
        "114933.343000",
        "114934.375000",
        "114935.335000",
        "114936.327000",
        "114937.379000",
        "114938.347000",
        "114939.334000",
        "114940.321000",
        "114941.346000",
        "114942.318000",
        "114943.314000",
        "114944.344000",
        "114945.319000",
        "114946.338000",
        "114947.356000",
        "114948.320000",
        "114949.326000",
        "114950.337000",
        "114951.344000",
        "114952.359000",
        "114953.332000",
        "114954.335000",
        "114955.340000",
        "114956.339000",
        "114957.317000",
        "114958.340000",
        "114959.361000",
        "115000.334000",
        "115001.336000",
        "115002.322000",
        "115003.331000",
        "115004.332000",
        "115005.376000",
        "115006.326000",
        "115007.345000",
        "115008.325000",
        "115009.365000",
        "115010.349000",
        "115011.317000",
        "115012.311000",
        "115013.331000",
        "115014.323000",
        "115015.362000",
        "115016.331000",
        "115017.320000",
        "115018.333000",
        "115019.340000",
        "115020.374000",
        "115021.340000",
        "115022.317000",
        "115023.346000",
        "115024.384000",
        "115025.338000",
        "115026.316000",
        "115027.323000",
        "115028.307000",
        "115029.298000",
        "115030.323000",
        "115031.356000",
        "115032.322000",
        "115033.392000",
        "115034.366000",
        "115035.343000",
        "115036.351000",
        "115037.409000",
        "115038.364000",
        "115039.355000",
        "115040.344000",
        "115041.322000",
        "115042.345000",
        "115043.402000",
        "115044.329000",
        "115045.341000",
        "115046.360000",
        "115047.325000",
        "115048.343000",
        "115049.323000",
        "115050.340000",
        "115051.344000",
        "115052.350000",
        "115053.384000",
        "115054.362000",
        "115055.333000",
        "115056.338000",
        "115057.347000",
        "115058.317000",
        "115059.317000",
        "115100.311000",
        "115101.348000",
        "115102.330000",
        "115103.338000",
        "115104.334000",
        "115105.334000",
        "115106.326000",
        "115107.339000",
        "115108.383000",
        "115109.348000",
        "115110.321000",
        "115111.321000",
        "115112.346000",
        "115113.396000",
        "115114.341000",
        "115115.326000",
        "115116.332000",
        "115117.353000",
        "115118.321000",
        "115119.310000",
        "115120.357000",
        "115121.368000"
      ],
      "InstanceNumber": [
        1,
        2,
        3,
        4,
        5,
        6,
        7,
        8,
        9,
        10,
        11,
        12,
        13,
        14,
        15,
        16,
        17,
        18,
        19,
        20,
        21,
        22,
        23,
        24,
        25,
        26,
        27,
        28,
        29,
        30,
        31,
        32,
        33,
        34,
        35,
        36,
        37,
        38,
        39,
        40,
        41,
        42,
        43,
        44,
        45,
        46,
        47,
        48,
        49,
        50,
        51,
        52,
        53,
        54,
        55,
        56,
        57,
        58,
        59,
        60,
        61,
        62,
        63,
        64,
        65,
        66,
        67,
        68,
        69,
        70,
        71,
        72,
        73,
        74,
        75,
        76,
        77,
        78,
        79,
        80,
        81,
        82,
        83,
        84,
        85,
        86,
        87,
        88,
        89,
        90,
        91,
        92,
        93,
        94,
        95,
        96,
        97,
        98,
        99,
        100,
        101,
        102,
        103,
        104,
        105,
        106,
        107,
        108,
        109,
        110,
        111,
        112,
        113,
        114,
        115,
        116,
        117,
        118,
        119,
        120,
        121,
        122,
        123,
        124,
        125,
        126,
        127,
        128,
        129,
        130,
        131,
        132,
        133,
        134,
        135,
        136,
        137,
        138,
        139,
        140,
        141,
        142,
        143,
        144,
        145,
        146,
        147,
        148,
        149,
        150,
        151,
        152,
        153,
        154,
        155,
        156,
