{
  "AcquisitionMatrixPE": 96,
  "AcquisitionNumber": 1,
  "BandwidthPerPixelPhaseEncode": 18.939,
  "BaseResolution": 96,
  "BodyPartExamined": "BRAIN",
  "ConsistencyInfo": "N4_VE11C_LATEST_20160120",
  "ConversionSoftware": "dcm2niix",
  "ConversionSoftwareVersion": "v1.0.20171215 (OpenJPEG build) GCC6.3.0",
  "DerivedVendorReportedEchoSpacing": 0.000550011,
  "DeviceSerialNumber": "66112",
  "DwellTime": 2.2e-06,
  "EchoTime": 0.033,
  "EchoTrainLength": 96,
  "EffectiveEchoSpacing": 0.000550011,
  "FlipAngle": 59,
  "ImageOrientationPatientDICOM": [
    0.998137,
    0.059023,
    0.0154548,
    -0.0593003,
    0.998075,
    0.0181458
  ],
  "ImageType": [
    "ORIGINAL",
    "PRIMARY",
    "FMRI",
    "NONE",
    "ND",
    "NORM",
    "MOSAIC"
  ],
  "InPlanePhaseEncodingDirectionDICOM": "COL",
  "InstitutionAddress": "Maynard_3_Hanover_NH_US_03755",
  "InstitutionName": "Dartmouth_College_-_PBS",
  "InstitutionalDepartmentName": "Department",
  "MRAcquisitionType": "2D",
  "MagneticFieldStrength": 3,
  "Manufacturer": "Siemens",
  "ManufacturersModelName": "Prisma",
  "Modality": "MR",
  "MultibandAccelerationFactor": 4,
  "PartialFourier": 1,
  "PatientPosition": "HFS",
  "PercentPhaseFOV": 100,
  "PhaseEncodingDirection": "j-",
  "PhaseEncodingSteps": 96,
  "PhaseResolution": 1,
  "PixelBandwidth": 2365,
  "ProcedureStepDescription": "Gobbini_Matteo_1038_hyperface",
  "ProtocolName": "func_run-02_task-visualmemory",
  "PulseSequenceDetails": "%SiemensSeq%_ep2d_bold",
  "ReceiveCoilActiveElements": "HEA;HEP",
  "ReceiveCoilName": "Head_32",
  "ReconMatrixPE": 96,
  "RepetitionTime": 1,
  "SAR": 0.0564531,
  "ScanOptions": "FS",
  "ScanningSequence": "EP",
  "SequenceName": "_epfid2d1_96",
  "SequenceVariant": "SK",
  "SeriesDescription": "func_run-02_task-visualmemory",
  "SeriesNumber": 14,
  "ShimSetting": [
    4141,
    -7709,
    -7312,
    657,
    19,
    71,
    98,
    31
  ],
  "SliceThickness": 2.5,
  "SliceTiming": [
    0.735,
    0,
    0.49,
    0.0825,
    0.5725,
    0.165,
    0.655,
    0.3275,
    0.8175,
    0.41,
    0.9,
    0.245,
    0.735,
    0,
    0.49,
    0.0825,
    0.5725,
    0.165,
    0.655,
    0.3275,
    0.8175,
    0.41,
    0.9,
    0.245,
    0.735,
    0,
    0.49,
    0.0825,
    0.5725,
    0.165,
    0.655,
    0.3275,
    0.8175,
    0.41,
    0.9,
    0.245,
    0.735,
    0,
    0.49,
    0.0825,
    0.5725,
    0.165,
    0.655,
    0.3275,
    0.8175,
    0.41,
    0.9,
    0.245
  ],
  "SoftwareVersions": "syngo_MR_E11",
  "SpacingBetweenSlices": 2.5,
  "StationName": "AWP66112",
  "TotalReadoutTime": 0.0522511,
  "TxRefAmp": 256.689,
  "time": {
    "samples": {
      "AcquisitionNumber": [
        1,
        2,
        3,
        4,
        5,
        6,
        7,
        8,
        9,
        10,
        11,
        12,
        13,
        14,
        15,
        16,
        17,
        18,
        19,
        20,
        21,
        22,
        23,
        24,
        25,
        26,
        27,
        28,
        29,
        30,
        31,
        32,
        33,
        34,
        35,
        36,
        37,
        38,
        39,
        40,
        41,
        42,
        43,
        44,
        45,
        46,
        47,
        48,
        49,
        50,
        51,
        52,
        53,
        54,
        55,
        56,
        57,
        58,
        59,
        60,
        61,
        62,
        63,
        64,
        65,
        66,
        67,
        68,
        69,
        70,
        71,
        72,
        73,
        74,
        75,
        76,
        77,
        78,
        79,
        80,
        81,
        82,
        83,
        84,
        85,
        86,
        87,
        88,
        89,
        90,
        91,
        92,
        93,
        94,
        95,
        96,
        97,
        98,
        99,
        100,
        101,
        102,
        103,
        104,
        105,
        106,
        107,
        108,
        109,
        110,
        111,
        112,
        113,
        114,
        115,
        116,
        117,
        118,
        119,
        120,
        121,
        122,
        123,
        124,
        125,
        126,
        127,
        128,
        129,
        130,
        131,
        132,
        133,
        134,
        135,
        136,
        137,
        138,
        139,
        140,
        141,
        142,
        143,
        144,
        145,
        146,
        147,
        148,
        149,
        150,
        151,
        152,
        153,
        154,
        155,
        156,
        157,
        158,
        159,
        160,
        161,
        162,
        163,
        164,
        165,
        166,
        167,
        168,
        169,
        170,
        171,
        172,
        173,
        174,
        175,
        176,
        177,
        178,
        179,
        180,
        181,
        182,
        183,
        184,
        185,
        186,
        187,
        188,
        189,
        190,
        191,
        192,
        193,
        194,
        195,
        196,
        197,
        198,
        199,
        200,
        201,
        202,
        203,
        204,
        205,
        206,
        207,
        208,
        209,
        210,
        211,
        212,
        213,
        214,
        215,
        216,
        217,
        218,
        219,
        220,
        221,
        222,
        223,
        224,
        225,
        226,
        227,
        228,
        229,
        230,
        231,
        232,
        233,
        234,
        235,
        236,
        237,
        238,
        239,
        240,
        241,
        242,
        243,
        244,
        245,
        246,
        247,
        248,
        249,
        250,
        251,
        252,
        253,
        254,
        255,
        256,
        257,
        258,
        259,
        260,
        261,
        262,
        263,
        264,
        265,
        266,
        267,
        268,
        269,
        270,
        271,
        272,
        273,
        274,
        275,
        276,
        277,
        278,
        279,
        280,
        281,
        282,
        283,
        284,
        285,
        286,
        287,
        288
      ],
      "AcquisitionTime": [
        "114034.287500",
        "114035.287500",
        "114036.287500",
        "114037.287500",
        "114038.287500",
        "114039.287500",
        "114040.287500",
        "114041.287500",
        "114042.287500",
        "114043.287500",
        "114044.287500",
        "114045.287500",
        "114046.287500",
        "114047.287500",
        "114048.287500",
        "114049.287500",
        "114050.287500",
        "114051.287500",
        "114052.287500",
        "114053.287500",
        "114054.287500",
        "114055.287500",
        "114056.287500",
        "114057.287500",
        "114058.287500",
        "114059.287500",
        "114100.287500",
        "114101.287500",
        "114102.287500",
        "114103.287500",
        "114104.287500",
        "114105.287500",
        "114106.287500",
        "114107.287500",
        "114108.287500",
        "114109.287500",
        "114110.287500",
        "114111.287500",
        "114112.287500",
        "114113.287500",
        "114114.287500",
        "114115.287500",
        "114116.287500",
        "114117.287500",
        "114118.287500",
        "114119.287500",
        "114120.287500",
        "114121.287500",
        "114122.287500",
        "114123.287500",
        "114124.287500",
        "114125.287500",
        "114126.287500",
        "114127.287500",
        "114128.287500",
        "114129.287500",
        "114130.287500",
        "114131.287500",
        "114132.287500",
        "114133.287500",
        "114134.287500",
        "114135.287500",
        "114136.287500",
        "114137.287500",
        "114138.287500",
        "114139.287500",
        "114140.287500",
        "114141.287500",
        "114142.287500",
        "114143.287500",
        "114144.287500",
        "114145.287500",
        "114146.287500",
        "114147.287500",
        "114148.287500",
        "114149.287500",
        "114150.287500",
        "114151.287500",
        "114152.287500",
        "114153.287500",
        "114154.287500",
        "114155.287500",
        "114156.287500",
        "114157.287500",
        "114158.287500",
        "114159.287500",
        "114200.287500",
        "114201.287500",
        "114202.287500",
        "114203.287500",
        "114204.287500",
        "114205.287500",
        "114206.287500",
        "114207.287500",
        "114208.287500",
        "114209.287500",
        "114210.287500",
        "114211.287500",
        "114212.287500",
        "114213.287500",
        "114214.287500",
        "114215.287500",
        "114216.287500",
        "114217.287500",
        "114218.287500",
        "114219.287500",
        "114220.287500",
        "114221.287500",
        "114222.287500",
        "114223.287500",
        "114224.287500",
        "114225.287500",
        "114226.287500",
        "114227.287500",
        "114228.287500",
        "114229.287500",
        "114230.287500",
        "114231.287500",
        "114232.287500",
        "114233.287500",
        "114234.287500",
        "114235.287500",
        "114236.287500",
        "114237.287500",
        "114238.287500",
        "114239.287500",
        "114240.287500",
        "114241.287500",
        "114242.287500",
        "114243.287500",
        "114244.287500",
        "114245.287500",
        "114246.287500",
        "114247.287500",
        "114248.287500",
        "114249.287500",
        "114250.287500",
        "114251.287500",
        "114252.287500",
        "114253.287500",
        "114254.287500",
        "114255.287500",
        "114256.287500",
        "114257.287500",
        "114258.287500",
        "114259.287500",
        "114300.287500",
        "114301.287500",
        "114302.287500",
        "114303.287500",
        "114304.287500",
        "114305.287500",
        "114306.287500",
        "114307.287500",
        "114308.287500",
        "114309.287500",
        "114310.287500",
        "114311.287500",
        "114312.287500",
        "114313.287500",
        "114314.287500",
        "114315.287500",
        "114316.287500",
        "114317.287500",
        "114318.287500",
        "114319.287500",
        "114320.287500",
        "114321.287500",
        "114322.287500",
        "114323.287500",
        "114324.287500",
        "114325.287500",
        "114326.287500",
        "114327.287500",
        "114328.287500",
        "114329.287500",
        "114330.287500",
        "114331.287500",
        "114332.287500",
        "114333.287500",
        "114334.287500",
        "114335.287500",
        "114336.287500",
        "114337.287500",
        "114338.287500",
        "114339.287500",
        "114340.287500",
        "114341.287500",
        "114342.287500",
        "114343.287500",
        "114344.287500",
        "114345.287500",
        "114346.287500",
        "114347.287500",
        "114348.287500",
        "114349.287500",
        "114350.287500",
        "114351.287500",
        "114352.287500",
        "114353.287500",
        "114354.287500",
        "114355.287500",
        "114356.287500",
        "114357.287500",
        "114358.287500",
        "114359.287500",
        "114400.287500",
        "114401.287500",
        "114402.287500",
        "114403.287500",
        "114404.287500",
        "114405.287500",
        "114406.287500",
        "114407.287500",
        "114408.287500",
        "114409.287500",
        "114410.287500",
        "114411.287500",
        "114412.287500",
        "114413.287500",
        "114414.287500",
        "114415.287500",
        "114416.287500",
        "114417.287500",
        "114418.287500",
        "114419.287500",
        "114420.287500",
        "114421.287500",
        "114422.287500",
        "114423.287500",
        "114424.287500",
        "114425.287500",
        "114426.287500",
        "114427.287500",
        "114428.287500",
        "114429.287500",
        "114430.287500",
        "114431.287500",
        "114432.287500",
        "114433.287500",
        "114434.287500",
        "114435.287500",
        "114436.287500",
        "114437.287500",
        "114438.287500",
        "114439.287500",
        "114440.287500",
        "114441.287500",
        "114442.287500",
        "114443.287500",
        "114444.287500",
        "114445.287500",
        "114446.287500",
        "114447.287500",
        "114448.287500",
        "114449.287500",
        "114450.287500",
        "114451.287500",
        "114452.287500",
        "114453.287500",
        "114454.287500",
        "114455.287500",
        "114456.287500",
        "114457.287500",
        "114458.287500",
        "114459.287500",
        "114500.287500",
        "114501.287500",
        "114502.287500",
        "114503.287500",
        "114504.287500",
        "114505.287500",
        "114506.287500",
        "114507.287500",
        "114508.287500",
        "114509.287500",
        "114510.287500",
        "114511.287500",
        "114512.287500",
        "114513.287500",
        "114514.287500",
        "114515.287500",
        "114516.287500",
        "114517.287500",
        "114518.287500",
        "114519.287500",
        "114520.287500",
        "114521.287500"
      ],
      "ContentTime": [
        "114035.669000",
        "114036.501000",
        "114037.501000",
        "114038.467000",
        "114039.455000",
        "114040.456000",
        "114041.459000",
        "114042.514000",
        "114043.507000",
        "114044.491000",
        "114045.475000",
        "114046.483000",
        "114047.515000",
        "114048.508000",
        "114049.532000",
        "114050.521000",
        "114051.518000",
        "114052.455000",
        "114053.452000",
        "114054.461000",
        "114055.465000",
        "114056.504000",
        "114057.485000",
        "114058.458000",
        "114059.514000",
        "114100.517000",
        "114101.457000",
        "114102.446000",
        "114103.479000",
        "114104.491000",
        "114105.452000",
        "114106.459000",
        "114107.466000",
        "114108.475000",
        "114109.490000",
        "114110.488000",
        "114111.470000",
        "114112.456000",
        "114113.425000",
        "114114.444000",
        "114115.439000",
        "114116.456000",
        "114117.444000",
        "114118.463000",
        "114119.444000",
        "114120.462000",
        "114121.482000",
        "114122.443000",
        "114123.450000",
        "114124.445000",
        "114125.447000",
        "114126.462000",
        "114127.465000",
        "114128.453000",
        "114129.459000",
        "114130.535000",
        "114131.454000",
        "114132.446000",
        "114133.496000",
        "114134.460000",
        "114135.448000",
        "114136.448000",
        "114137.462000",
        "114138.438000",
        "114139.485000",
        "114140.443000",
        "114141.432000",
        "114142.458000",
        "114143.529000",
        "114144.473000",
        "114145.458000",
        "114146.439000",
        "114147.444000",
        "114148.431000",
        "114149.461000",
        "114150.449000",
        "114151.496000",
        "114152.474000",
        "114153.469000",
        "114154.440000",
        "114155.449000",
        "114156.462000",
        "114157.435000",
        "114158.462000",
        "114159.456000",
        "114200.429000",
        "114201.435000",
        "114202.512000",
        "114203.452000",
        "114204.444000",
        "114205.454000",
        "114206.435000",
        "114207.422000",
        "114208.460000",
        "114209.434000",
        "114210.461000",
        "114211.454000",
        "114212.457000",
        "114213.457000",
        "114214.476000",
        "114215.472000",
        "114216.487000",
        "114217.494000",
        "114218.453000",
        "114219.427000",
        "114220.457000",
        "114221.463000",
        "114222.448000",
        "114223.448000",
        "114224.445000",
        "114225.447000",
        "114226.468000",
        "114227.449000",
        "114228.465000",
        "114229.448000",
        "114230.458000",
        "114231.465000",
        "114232.462000",
        "114233.462000",
        "114234.438000",
        "114235.475000",
        "114236.460000",
        "114237.428000",
        "114238.508000",
        "114239.484000",
        "114240.459000",
        "114241.463000",
        "114242.471000",
        "114243.442000",
        "114244.431000",
        "114245.442000",
        "114246.440000",
        "114247.476000",
        "114248.488000",
        "114249.468000",
        "114250.442000",
        "114251.449000",
        "114252.440000",
        "114253.455000",
        "114254.459000",
        "114255.454000",
        "114256.453000",
        "114257.459000",
        "114258.454000",
        "114259.455000",
        "114300.470000",
        "114301.465000",
        "114302.480000",
        "114303.476000",
        "114304.443000",
        "114305.425000",
        "114306.453000",
        "114307.442000",
        "114308.516000",
        "114309.461000",
        "114310.450000",
        "114311.474000",
        "114312.443000",
        "114313.458000",
        "114314.476000",
        "114315.458000",
        "114316.458000",
        "114317.459000",
        "114318.451000",
        "114319.442000",
        "114320.447000",
        "114321.424000",
        "114322.463000",
        "114323.506000",
        "114324.462000",
        "114325.476000",
        "114326.475000",
        "114327.471000",
        "114328.438000",
        "114329.461000",
        "114330.466000",
        "114331.452000",
        "114332.458000",
        "114333.450000",
        "114334.457000",
        "114335.481000",
        "114336.456000",
        "114337.456000",
        "114338.442000",
        "114339.451000",
        "114340.504000",
        "114341.454000",
        "114342.471000",
        "114343.480000",
        "114344.457000",
        "114345.460000",
        "114346.446000",
        "114347.468000",
        "114348.458000",
        "114349.445000",
        "114350.450000",
        "114351.498000",
        "114352.453000",
        "114353.456000",
        "114354.524000",
        "114355.459000",
        "114356.450000",
        "114357.447000",
        "114358.459000",
        "114359.445000",
        "114400.475000",
        "114401.447000",
        "114402.439000",
        "114403.446000",
        "114404.446000",
        "114405.453000",
        "114406.433000",
        "114407.449000",
        "114408.453000",
        "114409.444000",
        "114410.450000",
        "114411.461000",
        "114412.445000",
        "114413.460000",
        "114414.441000",
        "114415.455000",
        "114416.513000",
        "114417.449000",
        "114418.454000",
        "114419.458000",
        "114420.440000",
        "114421.452000",
        "114422.446000",
        "114423.460000",
        "114424.466000",
        "114425.453000",
        "114426.428000",
        "114427.496000",
        "114428.436000",
        "114429.439000",
        "114430.453000",
        "114431.465000",
        "114432.452000",
        "114433.449000",
        "114434.456000",
        "114435.454000",
        "114436.447000",
        "114437.444000",
        "114438.455000",
        "114439.479000",
        "114440.484000",
        "114441.417000",
        "114442.448000",
        "114443.451000",
        "114444.441000",
        "114445.470000",
        "114446.472000",
        "114447.442000",
        "114448.442000",
        "114449.437000",
        "114450.468000",
        "114451.470000",
        "114452.481000",
        "114453.439000",
        "114454.466000",
        "114455.452000",
        "114456.475000",
        "114457.454000",
        "114458.441000",
        "114459.474000",
        "114500.459000",
        "114501.449000",
        "114502.440000",
        "114503.438000",
        "114504.436000",
        "114505.451000",
        "114506.462000",
        "114507.490000",
        "114508.463000",
        "114509.475000",
        "114510.492000",
        "114511.446000",
        "114512.432000",
        "114513.441000",
        "114514.475000",
        "114515.447000",
        "114516.483000",
        "114517.426000",
        "114518.471000",
        "114519.493000",
        "114520.485000",
        "114521.506000",
        "114522.473000"
      ],
      "InstanceCreationTime": [
        "114035.669000",
        "114036.501000",
        "114037.501000",
        "114038.467000",
        "114039.455000",
        "114040.456000",
        "114041.459000",
        "114042.514000",
        "114043.507000",
        "114044.491000",
        "114045.475000",
        "114046.483000",
        "114047.515000",
        "114048.508000",
        "114049.532000",
        "114050.521000",
        "114051.518000",
        "114052.455000",
        "114053.452000",
        "114054.461000",
        "114055.465000",
        "114056.504000",
        "114057.485000",
        "114058.458000",
        "114059.514000",
        "114100.517000",
        "114101.457000",
        "114102.446000",
        "114103.479000",
        "114104.491000",
        "114105.452000",
        "114106.459000",
        "114107.466000",
        "114108.475000",
        "114109.490000",
        "114110.488000",
        "114111.470000",
        "114112.456000",
        "114113.425000",
        "114114.444000",
        "114115.439000",
        "114116.456000",
        "114117.444000",
        "114118.463000",
        "114119.444000",
        "114120.462000",
        "114121.482000",
        "114122.443000",
        "114123.450000",
        "114124.445000",
        "114125.447000",
        "114126.462000",
        "114127.465000",
        "114128.453000",
        "114129.459000",
        "114130.535000",
        "114131.454000",
        "114132.446000",
        "114133.496000",
        "114134.460000",
        "114135.448000",
        "114136.448000",
        "114137.462000",
        "114138.438000",
        "114139.485000",
        "114140.443000",
        "114141.432000",
        "114142.458000",
        "114143.529000",
        "114144.473000",
        "114145.458000",
        "114146.439000",
        "114147.444000",
        "114148.431000",
        "114149.461000",
        "114150.449000",
        "114151.496000",
        "114152.474000",
        "114153.469000",
        "114154.440000",
        "114155.449000",
        "114156.462000",
        "114157.435000",
        "114158.462000",
        "114159.456000",
        "114200.429000",
        "114201.435000",
        "114202.512000",
        "114203.452000",
        "114204.444000",
        "114205.454000",
        "114206.435000",
        "114207.422000",
        "114208.460000",
        "114209.434000",
        "114210.461000",
        "114211.454000",
        "114212.457000",
        "114213.457000",
        "114214.476000",
        "114215.472000",
        "114216.487000",
        "114217.494000",
        "114218.453000",
        "114219.427000",
        "114220.457000",
        "114221.463000",
        "114222.448000",
        "114223.448000",
        "114224.445000",
        "114225.447000",
        "114226.468000",
        "114227.449000",
        "114228.465000",
        "114229.448000",
        "114230.458000",
        "114231.465000",
        "114232.462000",
        "114233.462000",
        "114234.438000",
        "114235.475000",
        "114236.460000",
        "114237.428000",
        "114238.508000",
        "114239.484000",
        "114240.459000",
        "114241.463000",
        "114242.471000",
        "114243.442000",
        "114244.431000",
        "114245.442000",
        "114246.440000",
        "114247.476000",
        "114248.488000",
        "114249.468000",
        "114250.442000",
        "114251.449000",
        "114252.440000",
        "114253.455000",
        "114254.459000",
        "114255.454000",
        "114256.453000",
        "114257.459000",
        "114258.454000",
        "114259.455000",
        "114300.470000",
        "114301.465000",
        "114302.480000",
        "114303.476000",
        "114304.443000",
        "114305.425000",
        "114306.453000",
        "114307.442000",
        "114308.516000",
        "114309.461000",
        "114310.450000",
        "114311.474000",
        "114312.443000",
        "114313.458000",
        "114314.476000",
        "114315.458000",
        "114316.458000",
        "114317.459000",
        "114318.451000",
        "114319.442000",
        "114320.447000",
        "114321.424000",
        "114322.463000",
        "114323.506000",
        "114324.462000",
        "114325.476000",
        "114326.475000",
        "114327.471000",
        "114328.438000",
        "114329.461000",
        "114330.466000",
        "114331.452000",
        "114332.458000",
        "114333.450000",
        "114334.457000",
        "114335.481000",
        "114336.456000",
        "114337.456000",
        "114338.442000",
        "114339.451000",
        "114340.504000",
        "114341.454000",
        "114342.471000",
        "114343.480000",
        "114344.457000",
        "114345.460000",
        "114346.446000",
        "114347.468000",
        "114348.458000",
        "114349.445000",
        "114350.450000",
        "114351.498000",
        "114352.453000",
        "114353.456000",
        "114354.524000",
        "114355.459000",
        "114356.450000",
        "114357.447000",
        "114358.459000",
        "114359.445000",
        "114400.475000",
        "114401.447000",
        "114402.439000",
        "114403.446000",
        "114404.446000",
        "114405.453000",
        "114406.433000",
        "114407.449000",
        "114408.453000",
        "114409.444000",
        "114410.450000",
        "114411.461000",
        "114412.445000",
        "114413.460000",
        "114414.441000",
        "114415.455000",
        "114416.513000",
        "114417.449000",
        "114418.454000",
        "114419.458000",
        "114420.440000",
        "114421.452000",
        "114422.446000",
        "114423.460000",
        "114424.466000",
        "114425.453000",
        "114426.428000",
        "114427.496000",
        "114428.436000",
        "114429.439000",
        "114430.453000",
        "114431.465000",
        "114432.452000",
        "114433.449000",
        "114434.456000",
        "114435.454000",
        "114436.447000",
        "114437.444000",
        "114438.455000",
        "114439.479000",
        "114440.484000",
        "114441.417000",
        "114442.448000",
        "114443.451000",
        "114444.441000",
        "114445.470000",
        "114446.472000",
        "114447.442000",
        "114448.442000",
        "114449.437000",
        "114450.468000",
        "114451.470000",
        "114452.481000",
        "114453.439000",
        "114454.466000",
        "114455.452000",
        "114456.475000",
        "114457.454000",
        "114458.441000",
        "114459.474000",
        "114500.459000",
        "114501.449000",
        "114502.440000",
        "114503.438000",
        "114504.436000",
        "114505.451000",
        "114506.462000",
        "114507.490000",
        "114508.463000",
        "114509.475000",
        "114510.492000",
        "114511.446000",
        "114512.432000",
        "114513.441000",
        "114514.475000",
        "114515.447000",
        "114516.483000",
        "114517.426000",
        "114518.471000",
        "114519.493000",
        "114520.485000",
        "114521.506000",
        "114522.473000"
      ],
      "InstanceNumber": [
        1,
        2,
        3,
        4,
        5,
        6,
        7,
        8,
        9,
        10,
        11,
        12,
        13,
        14,
        15,
        16,
        17,
        18,
        19,
        20,
        21,
        22,
        23,
        24,
        25,
        26,
        27,
        28,
        29,
        30,
        31,
        32,
        33,
        34,
        35,
        36,
        37,
        38,
        39,
        40,
        41,
        42,
        43,
        44,
        45,
        46,
        47,
        48,
        49,
        50,
        51,
        52,
        53,
        54,
        55,
        56,
        57,
        58,
        59,
        60,
        61,
        62,
        63,
        64,
        65,
        66,
        67,
        68,
        69,
        70,
        71,
        72,
        73,
        74,
        75,
        76,
        77,
        78,
        79,
        80,
        81,
        82,
        83,
        84,
        85,
        86,
        87,
        88,
        89,
        90,
        91,
        92,
        93,
        94,
        95,
        96,
        97,
        98,
        99,
        100,
        101,
        102,
        103,
        104,
        105,
        106,
        107,
        108,
        109,
        110,
        111,
        112,
        113,
        114,
        115,
        116,
        117,
        118,
        119,
        120,
        121,
        122,
        123,
        124,
        125,
        126,
        127,
        128,
        129,
        130,
        131,
        132,
        133,
        134,
        135,
        136,
        137,
        138,
        139,
        140,
        141,
        142,
        143,
        144,
        145,
        146,
        147,
        148,
        149,
        150,
        151,
        152,
        153,
        154,
        155,
        156,
