{
  "AcquisitionMatrixPE": 96,
  "AcquisitionNumber": 1,
  "BandwidthPerPixelPhaseEncode": 18.939,
  "BaseResolution": 96,
  "BodyPartExamined": "BRAIN",
  "ConsistencyInfo": "N4_VE11C_LATEST_20160120",
  "ConversionSoftware": "dcm2niix",
  "ConversionSoftwareVersion": "v1.0.20170923 (OpenJPEG build) GCC6.3.0",
  "DerivedVendorReportedEchoSpacing": 0.000550011,
  "DeviceSerialNumber": "66112",
  "DwellTime": 2.2e-06,
  "EchoTime": 0.033,
  "EchoTrainLength": 96,
  "EffectiveEchoSpacing": 0.000550011,
  "FlipAngle": 59,
  "ImageType": [
    "ORIGINAL",
    "PRIMARY",
    "FMRI",
    "NONE",
    "ND",
    "NORM",
    "MOSAIC"
  ],
  "InstitutionAddress": "Maynard_3_Hanover_NH_US_03755",
  "InstitutionName": "Dartmouth_College_-_PBS",
  "MagneticFieldStrength": 3,
  "Manufacturer": "Siemens",
  "ManufacturersModelName": "Prisma",
  "Modality": "MR",
  "MultibandAccelerationFactor": 4,
  "PercentPhaseFOV": 100,
  "PhaseEncodingDirection": "j-",
  "PhaseEncodingSteps": 96,
  "PhaseResolution": 1,
  "ProcedureStepDescription": "Gobbini_Matteo_1038_hyperface",
  "ProtocolName": "func_run-01_task-localizer",
  "PulseSequenceDetails": "%SiemensSeq%_ep2d_bold",
  "ReceiveCoilActiveElements": "HEA;HEP",
  "ReceiveCoilName": "Head_32",
  "ReconMatrixPE": 96,
  "RepetitionTime": 1,
  "ScanOptions": "FS",
  "ScanningSequence": "EP",
  "SequenceName": "_epfid2d1_96",
  "SequenceVariant": "SK",
  "SeriesDescription": "func_run-01_task-localizer",
  "SliceTiming": [
    0.735,
    0,
    0.49,
    0.0825,
    0.5725,
    0.1625,
    0.6525,
    0.3275,
    0.8175,
    0.4075,
    0.8975,
    0.245,
    0.735,
    0,
    0.49,
    0.0825,
    0.5725,
    0.1625,
    0.6525,
    0.3275,
    0.8175,
    0.4075,
    0.8975,
    0.245,
    0.735,
    0,
    0.49,
    0.0825,
    0.5725,
    0.1625,
    0.6525,
    0.3275,
    0.8175,
    0.4075,
    0.8975,
    0.245,
    0.735,
    0,
    0.49,
    0.0825,
    0.5725,
    0.1625,
    0.6525,
    0.3275,
    0.8175,
    0.4075,
    0.8975,
    0.245
  ],
  "SoftwareVersions": "syngo_MR_E11",
  "StationName": "AWP66112",
  "TotalReadoutTime": 0.0522511,
  "time": {
    "samples": {
      "AcquisitionNumber": [
        1,
        2,
        3,
        4,
        5,
        6,
        7,
        8,
        9,
        10,
        11,
        12,
        13,
        14,
        15,
        16,
        17,
        18,
        19,
        20,
        21,
        22,
        23,
        24,
        25,
        26,
        27,
        28,
        29,
        30,
        31,
        32,
        33,
        34,
        35,
        36,
        37,
        38,
        39,
        40,
        41,
        42,
        43,
        44,
        45,
        46,
        47,
        48,
        49,
        50,
        51,
        52,
        53,
        54,
        55,
        56,
        57,
        58,
        59,
        60,
        61,
        62,
        63,
        64,
        65,
        66,
        67,
        68,
        69,
        70,
        71,
        72,
        73,
        74,
        75,
        76,
        77,
        78,
        79,
        80,
        81,
        82,
        83,
        84,
        85,
        86,
        87,
        88,
        89,
        90,
        91,
        92,
        93,
        94,
        95,
        96,
        97,
        98,
        99,
        100,
        101,
        102,
        103,
        104,
        105,
        106,
        107,
        108,
        109,
        110,
        111,
        112,
        113,
        114,
        115,
        116,
        117,
        118,
        119,
        120,
        121,
        122,
        123,
        124,
        125,
        126,
        127,
        128,
        129,
        130,
        131,
        132,
        133,
        134,
        135,
        136,
        137,
        138,
        139,
        140,
        141,
        142,
        143,
        144,
        145,
        146,
        147,
        148,
        149,
        150,
        151,
        152,
        153,
        154,
        155,
        156,
        157,
        158,
        159,
        160,
        161,
        162,
        163,
        164,
        165,
        166,
        167,
        168,
        169,
        170,
        171,
        172,
        173,
        174,
        175,
        176,
        177,
        178,
        179,
        180,
        181,
        182,
        183,
        184,
        185,
        186,
        187,
        188,
        189,
        190,
        191,
        192,
        193,
        194,
        195,
        196,
        197,
        198,
        199,
        200,
        201,
        202,
        203,
        204,
        205,
        206,
        207,
        208,
        209,
        210,
        211,
        212,
        213,
        214,
        215,
        216,
        217,
        218,
        219,
        220,
        221,
        222,
        223,
        224,
        225,
        226,
        227,
        228,
        229,
        230,
        231,
        232,
        233,
        234,
        235,
        236
      ],
      "AcquisitionTime": [
        "162224.515000",
        "162225.515000",
        "162226.515000",
        "162227.515000",
        "162228.515000",
        "162229.515000",
        "162230.515000",
        "162231.515000",
        "162232.515000",
        "162233.515000",
        "162234.515000",
        "162235.515000",
        "162236.515000",
        "162237.515000",
        "162238.515000",
        "162239.515000",
        "162240.515000",
        "162241.515000",
        "162242.515000",
        "162243.515000",
        "162244.515000",
        "162245.515000",
        "162246.515000",
        "162247.515000",
        "162248.515000",
        "162249.515000",
        "162250.515000",
        "162251.515000",
        "162252.515000",
        "162253.515000",
        "162254.515000",
        "162255.515000",
        "162256.515000",
        "162257.515000",
        "162258.515000",
        "162259.515000",
        "162300.515000",
        "162301.515000",
        "162302.515000",
        "162303.515000",
        "162304.515000",
        "162305.515000",
        "162306.515000",
        "162307.515000",
        "162308.515000",
        "162309.515000",
        "162310.515000",
        "162311.515000",
        "162312.515000",
        "162313.515000",
        "162314.515000",
        "162315.515000",
        "162316.515000",
        "162317.515000",
        "162318.515000",
        "162319.515000",
        "162320.515000",
        "162321.515000",
        "162322.515000",
        "162323.515000",
        "162324.515000",
        "162325.515000",
        "162326.515000",
        "162327.515000",
        "162328.515000",
        "162329.515000",
        "162330.515000",
        "162331.515000",
        "162332.515000",
        "162333.515000",
        "162334.515000",
        "162335.515000",
        "162336.515000",
        "162337.515000",
        "162338.515000",
        "162339.515000",
        "162340.515000",
        "162341.515000",
        "162342.515000",
        "162343.515000",
        "162344.515000",
        "162345.515000",
        "162346.515000",
        "162347.515000",
        "162348.515000",
        "162349.515000",
        "162350.515000",
        "162351.515000",
        "162352.515000",
        "162353.515000",
        "162354.515000",
        "162355.515000",
        "162356.515000",
        "162357.515000",
        "162358.515000",
        "162359.515000",
        "162400.515000",
        "162401.515000",
        "162402.515000",
        "162403.515000",
        "162404.515000",
        "162405.515000",
        "162406.515000",
        "162407.515000",
        "162408.515000",
        "162409.515000",
        "162410.515000",
        "162411.515000",
        "162412.515000",
        "162413.515000",
        "162414.515000",
        "162415.515000",
        "162416.515000",
        "162417.515000",
        "162418.515000",
        "162419.515000",
        "162420.515000",
        "162421.515000",
        "162422.515000",
        "162423.515000",
        "162424.515000",
        "162425.515000",
        "162426.515000",
        "162427.515000",
        "162428.515000",
        "162429.515000",
        "162430.515000",
        "162431.515000",
        "162432.515000",
        "162433.515000",
        "162434.515000",
        "162435.515000",
        "162436.515000",
        "162437.515000",
        "162438.515000",
        "162439.515000",
        "162440.515000",
        "162441.515000",
        "162442.515000",
        "162443.515000",
        "162444.515000",
        "162445.515000",
        "162446.515000",
        "162447.515000",
        "162448.515000",
        "162449.515000",
        "162450.515000",
        "162451.515000",
        "162452.515000",
        "162453.515000",
        "162454.515000",
        "162455.515000",
        "162456.515000",
        "162457.515000",
        "162458.515000",
        "162459.515000",
        "162500.515000",
        "162501.515000",
        "162502.515000",
        "162503.515000",
        "162504.515000",
        "162505.515000",
        "162506.515000",
        "162507.515000",
        "162508.515000",
        "162509.515000",
        "162510.515000",
        "162511.515000",
        "162512.515000",
        "162513.515000",
        "162514.515000",
        "162515.515000",
        "162516.515000",
        "162517.515000",
        "162518.515000",
        "162519.515000",
        "162520.515000",
        "162521.515000",
        "162522.515000",
        "162523.515000",
        "162524.515000",
        "162525.515000",
        "162526.515000",
        "162527.515000",
        "162528.515000",
        "162529.515000",
        "162530.515000",
        "162531.515000",
        "162532.515000",
        "162533.515000",
        "162534.515000",
        "162535.515000",
        "162536.515000",
        "162537.515000",
        "162538.515000",
        "162539.515000",
        "162540.515000",
        "162541.515000",
        "162542.515000",
        "162543.515000",
        "162544.515000",
        "162545.515000",
        "162546.515000",
        "162547.515000",
        "162548.515000",
        "162549.515000",
        "162550.515000",
        "162551.515000",
        "162552.515000",
        "162553.515000",
        "162554.515000",
        "162555.515000",
        "162556.515000",
        "162557.515000",
        "162558.515000",
        "162559.515000",
        "162600.515000",
        "162601.515000",
        "162602.515000",
        "162603.515000",
        "162604.515000",
        "162605.515000",
        "162606.515000",
        "162607.515000",
        "162608.515000",
        "162609.515000",
        "162610.515000",
        "162611.515000",
        "162612.515000",
        "162613.515000",
        "162614.515000",
        "162615.515000",
        "162616.515000",
        "162617.515000",
        "162618.515000",
        "162619.515000"
      ],
      "ContentTime": [
        "162226.169000",
        "162226.980000",
        "162227.958000",
        "162228.988000",
        "162229.964000",
        "162231.001000",
        "162231.970000",
        "162233.001000",
        "162233.980000",
        "162234.991000",
        "162236.004000",
        "162236.992000",
        "162237.977000",
        "162238.967000",
        "162239.969000",
        "162241.003000",
        "162241.964000",
        "162242.980000",
        "162243.954000",
        "162244.973000",
        "162246.002000",
        "162246.989000",
        "162247.963000",
        "162248.969000",
        "162249.978000",
        "162251.000000",
        "162251.966000",
        "162252.961000",
        "162253.981000",
        "162255.016000",
        "162255.960000",
        "162256.961000",
        "162258.003000",
        "162258.975000",
        "162259.940000",
        "162300.985000",
        "162302.013000",
        "162302.956000",
        "162304.002000",
        "162304.987000",
        "162305.968000",
        "162306.958000",
        "162307.990000",
        "162308.966000",
        "162309.988000",
        "162310.985000",
        "162311.988000",
        "162312.974000",
        "162313.991000",
        "162314.983000",
        "162316.000000",
        "162317.002000",
        "162317.966000",
        "162318.981000",
        "162319.967000",
        "162320.993000",
        "162321.996000",
        "162322.980000",
        "162323.977000",
        "162324.983000",
        "162325.978000",
        "162326.963000",
        "162327.978000",
        "162328.987000",
        "162329.974000",
        "162330.982000",
        "162331.962000",
        "162332.997000",
        "162333.977000",
        "162334.981000",
        "162335.972000",
        "162336.970000",
        "162337.955000",
        "162338.987000",
        "162339.984000",
        "162340.990000",
        "162342.024000",
        "162343.012000",
        "162343.955000",
        "162344.965000",
        "162345.978000",
        "162346.962000",
        "162347.993000",
        "162348.975000",
        "162349.975000",
        "162350.953000",
        "162351.988000",
        "162352.993000",
        "162353.987000",
        "162354.960000",
        "162355.972000",
        "162356.963000",
        "162357.978000",
        "162358.971000",
        "162400.042000",
        "162400.974000",
        "162401.965000",
        "162403.012000",
        "162403.953000",
        "162404.993000",
        "162405.930000",
        "162407.003000",
        "162407.997000",
        "162408.991000",
        "162409.982000",
        "162410.992000",
        "162411.981000",
        "162412.976000",
        "162414.043000",
        "162414.970000",
        "162415.976000",
        "162416.946000",
        "162417.987000",
        "162418.981000",
        "162420.032000",
        "162420.976000",
        "162421.959000",
        "162423.003000",
        "162423.951000",
        "162424.968000",
        "162426.037000",
        "162426.966000",
        "162428.009000",
        "162428.988000",
        "162430.022000",
        "162430.982000",
        "162431.964000",
        "162432.984000",
        "162434.010000",
        "162434.998000",
        "162435.993000",
        "162437.003000",
        "162437.972000",
        "162438.975000",
        "162440.020000",
        "162440.978000",
        "162441.969000",
        "162442.988000",
        "162443.978000",
        "162444.996000",
        "162446.003000",
        "162446.975000",
        "162447.972000",
        "162448.973000",
        "162449.982000",
        "162450.981000",
        "162451.988000",
        "162452.981000",
        "162453.980000",
        "162454.977000",
        "162455.967000",
        "162456.976000",
        "162458.048000",
        "162458.970000",
        "162459.971000",
        "162501.012000",
        "162501.983000",
        "162502.973000",
        "162503.981000",
        "162504.992000",
        "162506.004000",
        "162507.003000",
        "162507.990000",
        "162508.978000",
        "162510.006000",
        "162510.979000",
        "162511.968000",
        "162512.986000",
        "162513.988000",
        "162514.965000",
        "162515.996000",
        "162516.969000",
        "162517.995000",
        "162518.977000",
        "162519.966000",
        "162520.994000",
        "162522.033000",
        "162523.016000",
        "162523.964000",
        "162525.007000",
        "162526.004000",
        "162526.972000",
        "162527.984000",
        "162528.977000",
        "162529.964000",
        "162531.009000",
        "162532.002000",
        "162532.973000",
        "162533.981000",
        "162534.931000",
        "162536.022000",
        "162536.987000",
        "162537.979000",
        "162538.973000",
        "162540.002000",
        "162540.982000",
        "162542.030000",
        "162542.985000",
        "162543.990000",
        "162544.988000",
        "162545.969000",
        "162547.033000",
        "162547.997000",
        "162548.977000",
        "162549.993000",
        "162550.968000",
        "162551.976000",
        "162552.974000",
        "162553.983000",
        "162554.987000",
        "162555.959000",
        "162556.970000",
        "162558.003000",
        "162558.983000",
        "162559.938000",
        "162600.959000",
        "162602.024000",
        "162602.957000",
        "162603.988000",
        "162604.966000",
        "162605.990000",
        "162607.015000",
        "162608.000000",
        "162608.997000",
        "162610.027000",
        "162610.989000",
        "162611.988000",
        "162612.971000",
        "162613.997000",
        "162614.964000",
        "162616.018000",
        "162616.965000",
        "162617.966000",
        "162618.959000",
        "162619.973000",
        "162621.001000"
      ],
      "InstanceCreationTime": [
        "162226.169000",
        "162226.980000",
        "162227.958000",
        "162228.988000",
        "162229.964000",
        "162231.001000",
        "162231.970000",
        "162233.001000",
        "162233.980000",
        "162234.991000",
        "162236.004000",
        "162236.992000",
        "162237.977000",
        "162238.967000",
        "162239.969000",
        "162241.003000",
        "162241.964000",
        "162242.980000",
        "162243.954000",
        "162244.973000",
        "162246.002000",
        "162246.989000",
        "162247.963000",
        "162248.969000",
        "162249.978000",
        "162251.000000",
        "162251.966000",
        "162252.961000",
        "162253.981000",
        "162255.016000",
        "162255.960000",
        "162256.961000",
        "162258.003000",
        "162258.975000",
        "162259.940000",
        "162300.985000",
        "162302.013000",
        "162302.956000",
        "162304.002000",
        "162304.987000",
        "162305.968000",
        "162306.958000",
        "162307.990000",
        "162308.966000",
        "162309.988000",
        "162310.985000",
        "162311.988000",
        "162312.974000",
        "162313.991000",
        "162314.983000",
        "162316.000000",
        "162317.002000",
        "162317.966000",
        "162318.981000",
        "162319.967000",
        "162320.993000",
        "162321.996000",
        "162322.980000",
        "162323.977000",
        "162324.983000",
        "162325.978000",
        "162326.963000",
        "162327.978000",
        "162328.987000",
        "162329.974000",
        "162330.982000",
        "162331.962000",
        "162332.997000",
        "162333.977000",
        "162334.981000",
        "162335.972000",
        "162336.970000",
        "162337.955000",
        "162338.987000",
        "162339.984000",
        "162340.990000",
        "162342.024000",
        "162343.012000",
        "162343.955000",
        "162344.965000",
        "162345.978000",
        "162346.962000",
        "162347.993000",
        "162348.975000",
        "162349.975000",
        "162350.953000",
        "162351.988000",
        "162352.993000",
        "162353.987000",
        "162354.960000",
        "162355.972000",
        "162356.963000",
        "162357.978000",
        "162358.971000",
        "162400.042000",
        "162400.974000",
        "162401.965000",
        "162403.012000",
        "162403.953000",
        "162404.993000",
        "162405.930000",
        "162407.003000",
        "162407.997000",
        "162408.991000",
        "162409.982000",
        "162410.992000",
        "162411.981000",
        "162412.976000",
        "162414.043000",
        "162414.970000",
        "162415.976000",
        "162416.946000",
        "162417.987000",
        "162418.981000",
        "162420.032000",
        "162420.976000",
        "162421.959000",
        "162423.003000",
        "162423.951000",
        "162424.968000",
        "162426.037000",
        "162426.966000",
        "162428.009000",
        "162428.988000",
        "162430.022000",
        "162430.982000",
        "162431.964000",
        "162432.984000",
        "162434.010000",
        "162434.998000",
        "162435.993000",
        "162437.003000",
        "162437.972000",
        "162438.975000",
        "162440.020000",
        "162440.978000",
        "162441.969000",
        "162442.988000",
        "162443.978000",
        "162444.996000",
        "162446.003000",
        "162446.975000",
        "162447.972000",
        "162448.973000",
        "162449.982000",
        "162450.981000",
        "162451.988000",
        "162452.981000",
        "162453.980000",
        "162454.977000",
        "162455.967000",
        "162456.976000",
        "162458.048000",
        "162458.970000",
        "162459.971000",
        "162501.012000",
        "162501.983000",
        "162502.973000",
        "162503.981000",
        "162504.992000",
        "162506.004000",
        "162507.003000",
        "162507.990000",
        "162508.978000",
        "162510.006000",
        "162510.979000",
        "162511.968000",
        "162512.986000",
        "162513.988000",
        "162514.965000",
        "162515.996000",
        "162516.969000",
        "162517.995000",
        "162518.977000",
        "162519.966000",
        "162520.994000",
        "162522.033000",
        "162523.016000",
        "162523.964000",
        "162525.007000",
        "162526.004000",
        "162526.972000",
        "162527.984000",
        "162528.977000",
        "162529.964000",
        "162531.009000",
        "162532.002000",
        "162532.973000",
        "162533.981000",
        "162534.931000",
        "162536.022000",
        "162536.987000",
        "162537.979000",
        "162538.973000",
        "162540.002000",
        "162540.982000",
        "162542.030000",
        "162542.985000",
        "162543.990000",
        "162544.988000",
        "162545.969000",
        "162547.033000",
        "162547.997000",
        "162548.977000",
        "162549.993000",
        "162550.968000",
        "162551.976000",
        "162552.974000",
        "162553.983000",
        "162554.987000",
        "162555.959000",
        "162556.970000",
        "162558.003000",
        "162558.983000",
        "162559.938000",
        "162600.959000",
        "162602.024000",
        "162602.957000",
        "162603.988000",
        "162604.966000",
        "162605.990000",
        "162607.015000",
        "162608.000000",
        "162608.997000",
        "162610.027000",
        "162610.989000",
        "162611.988000",
        "162612.971000",
        "162613.997000",
        "162614.964000",
        "162616.018000",
        "162616.965000",
        "162617.966000",
        "162618.959000",
        "162619.973000",
        "162621.001000"
      ],
      "InstanceNumber": [
        1,
        2,
        3,
        4,
        5,
        6,
        7,
        8,
        9,
        10,
        11,
        12,
        13,
        14,
        15,
        16,
        17,
        18,
        19,
        20,
        21,
        22,
        23,
        24,
        25,
        26,
        27,
        28,
        29,
        30,
        31,
        32,
        33,
        34,
        35,
        36,
        37,
        38,
        39,
        40,
        41,
        42,
        43,
        44,
        45,
        46,
        47,
        48,
        49,
        50,
        51,
        52,
        53,
        54,
        55,
        56,
        57,
        58,
        59,
        60,
        61,
        62,
        63,
        64,
        65,
        66,
        67,
        68,
        69,
        70,
        71,
        72,
        73,
        74,
        75,
        76,
        77,
        78,
        79,
        80,
        81,
        82,
        83,
        84,
        85,
        86,
        87,
        88,
        89,
        90,
        91,
        92,
        93,
        94,
        95,
        96,
        97,
        98,
        99,
        100,
        101,
        102,
        103,
        104,
        105,
        106,
        107,
        108,
        109,
        110,
        111,
        112,
        113,
        114,
        115,
        116,
        117,
        118,
        119,
        120,
        121,
        122,
        123,
        124,
        125,
        126,
        127,
        128,
        129,
        130,
        131,
        132,
        133,
        134,
        135,
        136,
        137,
        138,
        139,
        140,
        141,
        142,
        143,
        144,
        145,
        146,
        147,
        148,
        149,
        150,
        151,
        152,
        153,
        154,
        155,
        156,
        157,
        158,
        159,
        160,
        161,
        162,
        163,
        164,
        165,
        166,
        167,
        168,
        169,
        170,
        171,
        172,
        173,
        174,
        175,
        176,
        177,
        178,
        179,
        180,
        181,
        182,
        183,
        184,
        185,
        186,
        187,
        188,
        189,
        190,
        191,
        192,
        193,
        194,
        195,
        196,
        197,
        198,
        199,
        200,
        201,
        202,
        203,
        204,
        205,
        206,
        207,
        208,
        209,
        210,
        211,
        212,
        213,
        214,
        215,
        216,
        217,
        218,
        219,
        220,
        221,
        222,
        223,
        224,
        225,
        226,
        227,
        228,
        229,
        230,
        231,
        232,
        233,
        234,
        235,
        236
      ],
      "LargestImagePixelValue": [
        946,
        857,
        1060,
        935,
        810,
        872,
        874,
        962,
        1062,
        1082,
        942,
        920,
        920,
        891,
        1014,
        1009,
        1002,
        1194,
        946,
        971,
        907,
        818,
        837,
        1032,
        883,
        899,
        897,
        963,
        875,
        830,
        830,
        955,
        942,
        964,
        1005,
        904,
        893,
        898,
        819,
        855,
        1031,
        886,
        920,
        875,
        909,
        857,
        886,
        875,
        1063,
        876,
        914,
        847,
        884,
        820,
        950,
        977,
        965,
        989,
        861,
        914,
        959,
        878,
        803,
        903,
        856,
        1015,
        887,
        843,
        871,
        896,
        861,
        927,
        952,
        919,
        1011,
        837,
        846,
        858,
        918,
        844,
        969,
        974,
        962,
        1036,
        890,
        961,
        923,
        849,
        965,
        869,
        842,
        862,
        945,
        855,
        999,
        936,
        944,
        871,
        853,
        872,
        909,
        850,
        860,
        922,
        902,
        977,
        836,
        915,
        954,
        821,
        896,
        917,
        858,
        807,
        988,
        932,
        838,
        911,
        967,
        896,
        951,
        905,
        887,
        985,
        1001,
        885,
        1063,
        902,
        849,
        921,
        813,
        892,
        945,
        881,
        844,
        861,
        820,
        910,
        884,
        924,
        894,
        852,
        834,
        863,
        850,
        813,
        950,
        938,
        1017,
        961,
        871,
        972,
        929,
        874,
        919,
        928,
        885,
        1016,
        797,
        791,
        916,
        939,
        836,
        973,
        913,
        884,
        968,
        869,
        922,
        950,
        841,
        876,
        873,
        885,
        813,
        874,
        838,
        848,
        814,
        843,
        956,
        881,
        978,
        1052,
        870,
        939,
        849,
        795,
        884,
        967,
        843,
        985,
        906,
        941,
        802,
        801,
        826,
        961,
        917,
        850,
        915,
        818,
        996,
        888,
        858,
        773,
        923,
        893,
        885,
        869,
        868,
        830,
        866,
        845,
        827,
        827,
        854,
        817,
        904,
        932,
        846,
        901,
        868,
        818,
        812,
        936,
        971,
        863,
        965,
        842,
        958,
        943,
        891,
        824,
        885,
        963
      ],
      "WindowCenter": [
        376,
        375,
        376,
        375,
        375,
        375,
        374,
        376,
        375,
        375,
        373,
        373,
        372,
        372,
        373,
        372,
        372,
        373,
        371,
        372,
        371,
        371,
        371,
        373,
        372,
        372,
        372,
        373,
        372,
        372,
        372,
        373,
        373,
        373,
        373,
        372,
        372,
        373,
        372,
        372,
        374,
        373,
        373,
        372,
        373,
        372,
        372,
        372,
        373,
        372,
        373,
        372,
        373,
        372,
        374,
        374,
        374,
        373,
        372,
        372,
        373,
        372,
        371,
        372,
        372,
        373,
        373,
        373,
        374,
