{
  "AcquisitionMatrixPE": 96,
  "AcquisitionNumber": 1,
  "AcquisitionTime": "19:26:24.942500",
  "BandwidthPerPixelPhaseEncode": 18.939,
  "BaseResolution": 96,
  "BodyPartExamined": "BRAIN",
  "ConsistencyInfo": "N4_VE11C_LATEST_20160120",
  "ConversionSoftware": "dcm2niix",
  "ConversionSoftwareVersion": "v1.0.20170923 (OpenJPEG build) GCC6.3.0",
  "DerivedVendorReportedEchoSpacing": 0.000550011,
  "DeviceSerialNumber": "66112",
  "DwellTime": 2.2e-06,
  "EchoTime": 0.033,
  "EchoTrainLength": 96,
  "EffectiveEchoSpacing": 0.000550011,
  "FlipAngle": 59,
  "ImageType": [
    "ORIGINAL",
    "PRIMARY",
    "FMRI",
    "NONE",
    "ND",
    "NORM",
    "MOSAIC"
],
  "InstitutionAddress": "Maynard_3_Hanover_NH_US_03755",
  "InstitutionName": "Dartmouth_College_-_PBS",
  "MagneticFieldStrength": 3,
  "Manufacturer": "Siemens",
  "ManufacturersModelName": "Prisma",
  "Modality": "MR",
  "MultibandAccelerationFactor": 4,
  "PartialFourier": 1,
  "PercentPhaseFOV": 100,
  "PhaseEncodingDirection": "j-",
  "PhaseEncodingSteps": 96,
  "PhaseResolution": 1,
  "ProcedureStepDescription": "Gobbini_Matteo_1038_hyperface",
  "ProtocolName": "func_run-04_task-visualmemory",
  "PulseSequenceDetails": "%SiemensSeq%_ep2d_bold",
  "ReceiveCoilActiveElements": "HEA;HEP",
  "ReceiveCoilName": "Head_32",
  "ReconMatrixPE": 96,
  "RepetitionTime": 1,
  "ScanOptions": "FS",
  "ScanningSequence": "EP",
  "SequenceName": "_epfid2d1_96",
  "SequenceVariant": "SK",
  "SeriesDescription": "func_run-04_task-visualmemory",
  "SliceTiming": [0.735, 0, 0.49, 0.08, 0.57, 0.1625, 0.6525, 0.325, 0.815, 0.4075, 0.8975, 0.245, 0.735, 0, 0.49, 0.08, 0.57, 0.1625, 0.6525, 0.325, 0.815, 0.4075, 0.8975, 0.245, 0.735, 0, 0.49, 0.08, 0.57, 0.1625, 0.6525, 0.325, 0.815, 0.4075, 0.8975, 0.245, 0.735, 0, 0.49, 0.08, 0.57, 0.1625, 0.6525, 0.325, 0.815, 0.4075, 0.8975, 0.245],
  "SoftwareVersions": "syngo_MR_E11",
  "StationName": "AWP66112",
  "TotalReadoutTime": 0.0522511,
  "dcmmeta_affine": [
    [-2.4942104816436768, -0.1700383722782135, 0.0008187742787413299, 128.72369384765625],
    [-0.16999104619026184, 2.493748426437378, 0.04819004610180855, -98.08399200439453],
    [0.004094389732927084, -0.04802277311682701, 2.499535322189331, -56.58952713012695],
    [0.0, 0.0, 0.0, 1.0]
],
  "dcmmeta_reorient_transform": [
    [0.0, -1.0, 0.0, 95.0],
    [1.0, 0.0, 0.0, 0.0],
    [0.0, 0.0, 1.0, 0.0],
    [0.0, 0.0, 0.0, 1.0]
],
  "dcmmeta_shape": [96, 96, 48, 288],
  "dcmmeta_slice_dim": 2,
  "dcmmeta_version": 0.6,
  "global": {
    "const": {
      "AccessionNumber": "A001142",
      "AcquisitionMatrix": [96, 0, 0, 96],
      "AngioFlag": "N",
      "BitsAllocated": 16,
      "BitsStored": 12,
      "BodyPartExamined": "BRAIN",
      "Columns": 672,
      "EchoNumbers": 1,
      "EchoTime": 33.0,
      "EchoTrainLength": 96,
      "FlipAngle": 59.0,
      "HighBit": 11,
      "ImageOrientationPatient": [0.9976842210626, 0.06799641754222, 0.00163775582428, -0.0680153495919, 0.99749933450194, 0.01920910950781],
      "ImagePositionPatient": [-781.93163220396, -905.97903814715, -76.161433254686],
      "ImageType": [
        "ORIGINAL",
        "PRIMARY",
        "FMRI",
        "NONE",
        "ND",
        "NORM",
        "MOSAIC"
],
      "ImagedNucleus": "1H",
      "ImagingFrequency": 123.252309,
      "InPlanePhaseEncodingDirection": "COL",
      "MRAcquisitionType": "2D",
      "MagneticFieldStrength": 3.0,
      "Manufacturer": "SIEMENS",
      "ManufacturerModelName": "Prisma",
      "Modality": "MR",
      "NumberOfAverages": 1.0,
      "NumberOfPhaseEncodingSteps": 96,
      "PercentPhaseFieldOfView": 100.0,
      "PercentSampling": 100.0,
      "PerformedProcedureStepStartTime": "185927.297000",
      "PhotometricInterpretation": "MONOCHROME2",
      "PixelBandwidth": 2365.0,
      "PixelRepresentation": 0,
      "PixelSpacing": [2.5, 2.5],
      "PositionReferenceIndicator": "",
      "ProtocolName": "func_run-04_task-visualmemory",
      "RepetitionTime": 1000.0,
      "Rows": 672,
      "SAR": 0.05635698738504,
      "SamplesPerPixel": 1,
      "ScanOptions": "FS",
      "ScanningSequence": "EP",
      "SequenceName": "*epfid2d1_96",
      "SequenceVariant": "SK",
      "SeriesDescription": "func_run-04_task-visualmemory",
      "SeriesNumber": 28,
      "SeriesTime": "192626.029000",
      "SliceLocation": -58.427519953596,
      "SliceThickness": 2.5,
      "SmallestImagePixelValue": 0,
      "SoftwareVersions": "syngo MR E11",
      "SpacingBetweenSlices": 2.4999999705777,
      "SpecificCharacterSet": "ISO_IR 100",
      "StudyID": "3",
      "StudyTime": "185927.167000",
      "TransmitCoilName": "Body",
      "VariableFlipAngleFlag": "N",
      "WindowCenterWidthExplanation": "Algo1",
      "dBdt": 0.0},
    "slices": {}
  },
  "time": {
    "samples": {
      "AcquisitionNumber": [1, 2, 3, 4, 5, 6, 7, 8, 9, 10, 11, 12, 13, 14, 15, 16, 17, 18, 19, 20, 21, 22, 23, 24, 25, 26, 27, 28, 29, 30, 31, 32, 33, 34, 35, 36, 37, 38, 39, 40, 41, 42, 43, 44, 45, 46, 47, 48, 49, 50, 51, 52, 53, 54, 55, 56, 57, 58, 59, 60, 61, 62, 63, 64, 65, 66, 67, 68, 69, 70, 71, 72, 73, 74, 75, 76, 77, 78, 79, 80, 81, 82, 83, 84, 85, 86, 87, 88, 89, 90, 91, 92, 93, 94, 95, 96, 97, 98, 99, 100, 101, 102, 103, 104, 105, 106, 107, 108, 109, 110, 111, 112, 113, 114, 115, 116, 117, 118, 119, 120, 121, 122, 123, 124, 125, 126, 127, 128, 129, 130, 131, 132, 133, 134, 135, 136, 137, 138, 139, 140, 141, 142, 143, 144, 145, 146, 147, 148, 149, 150, 151, 152, 153, 154, 155, 156, 157, 158, 159, 160, 161, 162, 163, 164, 165, 166, 167, 168, 169, 170, 171, 172, 173, 174, 175, 176, 177, 178, 179, 180, 181, 182, 183, 184, 185, 186, 187, 188, 189, 190, 191, 192, 193, 194, 195, 196, 197, 198, 199, 200, 201, 202, 203, 204, 205, 206, 207, 208, 209, 210, 211, 212, 213, 214, 215, 216, 217, 218, 219, 220, 221, 222, 223, 224, 225, 226, 227, 228, 229, 230, 231, 232, 233, 234, 235, 236, 237, 238, 239, 240, 241, 242, 243, 244, 245, 246, 247, 248, 249, 250, 251, 252, 253, 254, 255, 256, 257, 258, 259, 260, 261, 262, 263, 264, 265, 266, 267, 268, 269, 270, 271, 272, 273, 274, 275, 276, 277, 278, 279, 280, 281, 282, 283, 284, 285, 286, 287, 288],
      "AcquisitionTime": ["192624.942500", "192625.942500", "192626.942500", "192627.942500", "192628.942500", "192629.942500", "192630.942500", "192631.942500", "192632.942500", "192633.942500", "192634.942500", "192635.942500", "192636.942500", "192637.942500", "192638.942500", "192639.942500", "192640.942500", "192641.942500", "192642.942500", "192643.942500", "192644.942500", "192645.942500", "192646.942500", "192647.942500", "192648.942500", "192649.942500", "192650.942500", "192651.942500", "192652.942500", "192653.942500", "192654.942500", "192655.942500", "192656.942500", "192657.942500", "192658.942500", "192659.942500", "192700.942500", "192701.942500", "192702.942500", "192703.942500", "192704.942500", "192705.942500", "192706.942500", "192707.942500", "192708.942500", "192709.942500", "192710.942500", "192711.942500", "192712.942500", "192713.942500", "192714.942500", "192715.942500", "192716.942500", "192717.942500", "192718.942500", "192719.942500", "192720.942500", "192721.942500", "192722.942500", "192723.942500", "192724.942500", "192725.942500", "192726.942500", "192727.942500", "192728.942500", "192729.942500", "192730.942500", "192731.942500", "192732.942500", "192733.942500", "192734.942500", "192735.942500", "192736.942500", "192737.942500", "192738.942500", "192739.942500", "192740.942500", "192741.942500", "192742.942500", "192743.942500", "192744.942500", "192745.942500", "192746.942500", "192747.942500", "192748.942500", "192749.942500", "192750.942500", "192751.942500", "192752.942500", "192753.942500", "192754.942500", "192755.942500", "192756.942500", "192757.942500", "192758.942500", "192759.942500", "192800.942500", "192801.942500", "192802.942500", "192803.942500", "192804.942500", "192805.942500", "192806.942500", "192807.942500", "192808.942500", "192809.942500", "192810.942500", "192811.942500", "192812.942500", "192813.942500", "192814.942500", "192815.942500", "192816.942500", "192817.942500", "192818.942500", "192819.942500", "192820.942500", "192821.942500", "192822.942500", "192823.942500", "192824.942500", "192825.942500", "192826.942500", "192827.942500", "192828.942500", "192829.942500", "192830.942500", "192831.942500", "192832.942500", "192833.942500", "192834.942500", "192835.942500", "192836.942500", "192837.942500", "192838.942500", "192839.942500", "192840.942500", "192841.942500", "192842.942500", "192843.942500", "192844.942500", "192845.942500", "192846.942500", "192847.942500", "192848.942500", "192849.942500", "192850.942500", "192851.942500", "192852.942500", "192853.942500", "192854.942500", "192855.942500", "192856.942500", "192857.942500", "192858.942500", "192859.942500", "192900.942500", "192901.942500", "192902.942500", "192903.942500", "192904.942500", "192905.942500", "192906.942500", "192907.942500", "192908.942500", "192909.942500", "192910.942500", "192911.942500", "192912.942500", "192913.942500", "192914.942500", "192915.942500", "192916.942500", "192917.942500", "192918.942500", "192919.942500", "192920.942500", "192921.942500", "192922.942500", "192923.942500", "192924.942500", "192925.942500", "192926.942500", "192927.942500", "192928.942500", "192929.942500", "192930.942500", "192931.942500", "192932.942500", "192933.942500", "192934.942500", "192935.942500", "192936.942500", "192937.942500", "192938.942500", "192939.942500", "192940.942500", "192941.942500", "192942.942500", "192943.942500", "192944.942500", "192945.942500", "192946.942500", "192947.942500", "192948.942500", "192949.942500", "192950.942500", "192951.942500", "192952.942500", "192953.942500", "192954.942500", "192955.942500", "192956.942500", "192957.942500", "192958.942500", "192959.942500", "193000.942500", "193001.942500", "193002.942500", "193003.942500", "193004.942500", "193005.942500", "193006.942500", "193007.942500", "193008.942500", "193009.942500", "193010.942500", "193011.942500", "193012.942500", "193013.942500", "193014.942500", "193015.942500", "193016.942500", "193017.942500", "193018.942500", "193019.942500", "193020.942500", "193021.942500", "193022.942500", "193023.942500", "193024.942500", "193025.942500", "193026.942500", "193027.942500", "193028.942500", "193029.942500", "193030.942500", "193031.942500", "193032.942500", "193033.942500", "193034.942500", "193035.942500", "193036.942500", "193037.942500", "193038.942500", "193039.942500", "193040.942500", "193041.942500", "193042.942500", "193043.942500", "193044.942500", "193045.942500", "193046.942500", "193047.942500", "193048.942500", "193049.942500", "193050.942500", "193051.942500", "193052.942500", "193053.942500", "193054.942500", "193055.942500", "193056.942500", "193057.942500", "193058.942500", "193059.942500", "193100.942500", "193101.942500", "193102.942500", "193103.942500", "193104.942500", "193105.942500", "193106.942500", "193107.942500", "193108.942500", "193109.942500", "193110.942500", "193111.942500"],
      "ContentTime": ["192626.032000", "192626.856000", "192627.854000", "192628.832000", "192629.867000", "192630.846000", "192631.869000", "192632.841000", "192633.867000", "192634.921000", "192635.847000", "192636.885000", "192637.873000", "192638.842000", "192639.855000", "192640.832000", "192641.858000", "192642.855000", "192643.881000", "192644.845000", "192645.828000", "192646.846000", "192647.911000", "192648.879000", "192649.854000", "192650.835000", "192651.859000", "192652.855000", "192653.851000", "192654.846000", "192655.848000", "192656.898000", "192657.871000", "192658.843000", "192659.854000", "192700.843000", "192701.876000", "192702.836000", "192703.840000", "192704.826000", "192705.855000", "192706.867000", "192707.839000", "192708.851000", "192709.859000", "192710.830000", "192711.858000", "192712.842000", "192713.841000", "192714.838000", "192715.864000", "192716.851000", "192717.835000", "192718.868000", "192719.849000", "192720.861000", "192721.823000", "192722.819000", "192723.837000", "192724.846000", "192725.838000", "192726.852000", "192727.854000", "192728.830000", "192729.857000", "192730.849000", "192731.862000", "192732.872000", "192733.834000", "192734.841000", "192735.832000", "192736.854000", "192737.847000", "192738.896000", "192739.892000", "192740.869000", "192741.874000", "192742.822000", "192743.851000", "192744.836000", "192745.858000", "192746.836000", "192747.853000", "192748.837000", "192749.863000", "192750.852000", "192751.846000", "192752.862000", "192753.822000", "192754.875000", "192755.840000", "192756.867000", "192757.928000", "192758.831000", "192759.834000", "192800.831000", "192801.855000", "192802.847000", "192803.834000", "192804.833000", "192805.842000", "192806.848000", "192807.833000", "192808.869000", "192809.840000", "192810.851000", "192811.888000", "192812.896000", "192813.852000", "192814.846000", "192815.864000", "192816.841000", "192817.896000", "192818.847000", "192819.862000", "192820.907000", "192821.849000", "192822.862000", "192823.844000", "192824.856000", "192825.838000", "192826.851000", "192827.839000", "192828.848000", "192829.854000", "192830.857000", "192831.868000", "192832.844000", "192833.836000", "192834.825000", "192835.855000", "192836.832000", "192837.912000", "192838.855000", "192839.858000", "192840.856000", "192841.849000", "192842.858000", "192843.839000", "192844.854000", "192845.858000", "192846.906000", "192847.831000", "192848.866000", "192849.850000", "192850.922000", "192851.856000", "192852.860000", "192853.844000", "192854.868000", "192855.863000", "192856.841000", "192857.845000", "192858.862000", "192859.860000", "192900.868000", "192901.868000", "192902.856000", "192903.841000", "192904.882000", "192905.879000", "192906.904000", "192907.860000", "192908.904000", "192909.838000", "192910.859000", "192911.877000", "192912.922000", "192913.857000", "192914.868000", "192915.857000", "192916.873000", "192917.854000", "192918.868000", "192919.855000", "192920.871000", "192921.850000", "192922.853000", "192923.862000", "192924.848000", "192925.867000", "192926.871000", "192927.880000", "192928.850000", "192929.898000", "192930.888000", "192931.860000", "192932.840000", "192933.860000", "192934.907000", "192935.910000", "192936.836000", "192937.818000", "192938.858000", "192939.841000", "192940.836000", "192941.838000", "192942.841000", "192943.876000", "192944.861000", "192945.853000", "192946.880000", "192947.816000", "192948.883000", "192949.866000", "192950.830000", "192951.846000", "192952.862000", "192953.892000", "192954.859000", "192955.838000", "192956.848000", "192957.850000", "192958.881000", "192959.849000", "193000.844000", "193001.854000", "193002.844000", "193003.840000", "193004.847000", "193005.815000", "193006.839000", "193007.866000", "193008.857000", "193009.837000", "193010.862000", "193011.854000", "193012.848000", "193013.864000", "193014.831000", "193015.899000", "193016.825000", "193017.867000", "193018.862000", "193019.858000", "193020.892000", "193021.878000", "193022.856000", "193023.850000", "193024.853000", "193025.899000", "193026.847000", "193027.861000", "193028.851000", "193029.975000", "193030.885000", "193031.859000", "193032.866000", "193033.873000", "193034.869000", "193035.848000", "193036.871000", "193037.871000", "193038.882000", "193039.858000", "193040.866000", "193041.858000", "193042.858000", "193043.836000", "193044.845000", "193045.843000", "193046.844000", "193047.868000", "193048.838000", "193049.855000", "193050.840000", "193051.827000", "193052.853000", "193053.866000", "193054.837000", "193055.854000", "193056.856000", "193057.845000", "193058.848000", "193059.872000", "193100.918000", "193101.877000", "193102.841000", "193103.866000", "193104.835000", "193105.860000", "193106.856000", "193107.897000", "193108.872000", "193109.863000", "193110.871000", "193111.878000", "193112.885000"],
      "InstanceCreationTime": ["192626.032000", "192626.856000", "192627.854000", "192628.832000", "192629.867000", "192630.846000", "192631.869000", "192632.841000", "192633.867000", "192634.921000", "192635.847000", "192636.885000", "192637.873000", "192638.842000", "192639.855000", "192640.832000", "192641.858000", "192642.855000", "192643.881000", "192644.845000", "192645.828000", "192646.846000", "192647.911000", "192648.879000", "192649.854000", "192650.835000", "192651.859000", "192652.855000", "192653.851000", "192654.846000", "192655.848000", "192656.898000", "192657.871000", "192658.843000", "192659.854000", "192700.843000", "192701.876000", "192702.836000", "192703.840000", "192704.826000", "192705.855000", "192706.867000", "192707.839000", "192708.851000", "192709.859000", "192710.830000", "192711.858000", "192712.842000", "192713.841000", "192714.838000", "192715.864000", "192716.851000", "192717.835000", "192718.868000", "192719.849000", "192720.861000", "192721.823000", "192722.819000", "192723.837000", "192724.846000", "192725.838000", "192726.852000", "192727.854000", "192728.830000", "192729.857000", "192730.849000", "192731.862000", "192732.872000", "192733.834000", "192734.841000", "192735.832000", "192736.854000", "192737.847000", "192738.896000", "192739.892000", "192740.869000", "192741.874000", "192742.822000", "192743.851000", "192744.836000", "192745.858000", "192746.836000", "192747.853000", "192748.837000", "192749.863000", "192750.852000", "192751.846000", "192752.862000", "192753.822000", "192754.875000", "192755.840000", "192756.867000", "192757.928000", "192758.831000", "192759.834000", "192800.831000", "192801.855000", "192802.847000", "192803.834000", "192804.833000", "192805.842000", "192806.848000", "192807.833000", "192808.869000", "192809.840000", "192810.851000", "192811.888000", "192812.896000", "192813.852000", "192814.846000", "192815.864000", "192816.841000", "192817.896000", "192818.847000", "192819.862000", "192820.907000", "192821.849000", "192822.862000", "192823.844000", "192824.856000", "192825.838000", "192826.851000", "192827.839000", "192828.848000", "192829.854000", "192830.857000", "192831.868000", "192832.844000", "192833.836000", "192834.825000", "192835.855000", "192836.832000", "192837.912000", "192838.855000", "192839.858000", "192840.856000", "192841.849000", "192842.858000", "192843.839000", "192844.854000", "192845.858000", "192846.906000", "192847.831000", "192848.866000", "192849.850000", "192850.922000", "192851.856000", "192852.860000", "192853.844000", "192854.868000", "192855.863000", "192856.841000", "192857.845000", "192858.862000", "192859.860000", "192900.868000", "192901.868000", "192902.856000", "192903.841000", "192904.882000", "192905.879000", "192906.904000", "192907.860000", "192908.904000", "192909.838000", "192910.859000", "192911.877000", "192912.922000", "192913.857000", "192914.868000", "192915.857000", "192916.873000", "192917.854000", "192918.868000", "192919.855000", "192920.871000", "192921.850000", "192922.853000", "192923.862000", "192924.848000", "192925.867000", "192926.871000", "192927.880000", "192928.850000", "192929.898000", "192930.888000", "192931.860000", "192932.840000", "192933.860000", "192934.907000", "192935.910000", "192936.836000", "192937.818000", "192938.858000", "192939.841000", "192940.836000", "192941.838000", "192942.841000", "192943.876000", "192944.861000", "192945.853000", "192946.880000", "192947.816000", "192948.883000", "192949.866000", "192950.830000", "192951.846000", "192952.862000", "192953.892000", "192954.859000", "192955.838000", "192956.848000", "192957.850000", "192958.881000", "192959.849000", "193000.844000", "193001.854000", "193002.844000", "193003.840000", "193004.847000", "193005.815000", "193006.839000", "193007.866000", "193008.857000", "193009.837000", "193010.862000", "193011.854000", "193012.848000", "193013.864000", "193014.831000", "193015.899000", "193016.825000", "193017.867000", "193018.862000", "193019.858000", "193020.892000", "193021.878000", "193022.856000", "193023.850000", "193024.853000", "193025.899000", "193026.847000", "193027.861000", "193028.851000", "193029.975000", "193030.885000", "193031.859000", "193032.866000", "193033.873000", "193034.869000", "193035.848000", "193036.871000", "193037.871000", "193038.882000", "193039.858000", "193040.866000", "193041.858000", "193042.858000", "193043.836000", "193044.845000", "193045.843000", "193046.844000", "193047.868000", "193048.838000", "193049.855000", "193050.840000", "193051.827000", "193052.853000", "193053.866000", "193054.837000", "193055.854000", "193056.856000", "193057.845000", "193058.848000", "193059.872000", "193100.918000", "193101.877000", "193102.841000", "193103.866000", "193104.835000", "193105.860000", "193106.856000", "193107.897000", "193108.872000", "193109.863000", "193110.871000", "193111.878000", "193112.885000"],
      "InstanceNumber": [1, 2, 3, 4, 5, 6, 7, 8, 9, 10, 11, 12, 13, 14, 15, 16, 17, 18, 19, 20, 21, 22, 23, 24, 25, 26, 27, 28, 29, 30, 31, 32, 33, 34, 35, 36, 37, 38, 39, 40, 41, 42, 43, 44, 45, 46, 47, 48, 49, 50, 51, 52, 53, 54, 55, 56, 57, 58, 59, 60, 61, 62, 63, 64, 65, 66, 67, 68, 69, 70, 71, 72, 73, 74, 75, 76, 77, 78, 79, 80, 81, 82, 83, 84, 85, 86, 87, 88, 89, 90, 91, 92, 93, 94, 95, 96, 97, 98, 99, 100, 101, 102, 103, 104, 105, 106, 107, 108, 109, 110, 111, 112, 113, 114, 115, 116, 117, 118, 119, 120, 121, 122, 123, 124, 125, 126, 127, 128, 129, 130, 131, 132, 133, 134, 135, 136, 137, 138, 139, 140, 141, 142, 143, 144, 145, 146, 147, 148, 149, 150, 151, 152, 153, 154, 155, 156, 157, 158, 159, 160, 161, 162, 163, 164, 165, 166, 167, 168, 169, 170, 171, 172, 173, 174, 175, 176, 177, 178, 179, 180, 181, 182, 183, 184, 185, 186, 187, 188, 189, 190, 191, 192, 193, 194, 195, 196, 197, 198, 199, 200, 201, 202, 203, 204, 205, 206, 207, 208, 209, 210, 211, 212, 213, 214, 215, 216, 217, 218, 219, 220, 221, 222, 223, 224, 225, 226, 227, 228, 229, 230, 231, 232, 233, 234, 235, 236, 237, 238, 239, 240, 241, 242, 243, 244, 245, 246, 247, 248, 249, 250, 251, 252, 253, 254, 255, 256, 257, 258, 259, 260, 261, 262, 263, 264, 265, 266, 267, 268, 269, 270, 271, 272, 273, 274, 275, 276, 277, 278, 279, 280, 281, 282, 283, 284, 285, 286, 287, 288],
      "LargestImagePixelValue": [1605, 1281, 825, 868, 907, 726, 782, 706, 771, 805, 851, 1249, 1294, 767, 744, 909, 1005, 958, 704, 783, 863, 776, 701, 792, 853, 901, 743, 786, 918, 825, 723, 788, 895, 899, 696, 795, 790, 816, 808, 876, 1232, 1291, 872, 794, 871, 1395, 963, 772, 710, 839, 1009, 787, 826, 856, 927, 678, 787, 860, 776, 818, 756, 712, 967, 1375, 796, 739, 869, 875, 888, 729, 728, 759, 880, 997, 709, 769, 832, 913, 766, 755, 855, 862, 927, 1267, 1178, 862, 703, 796, 866, 924, 780, 701, 788, 837, 946, 747, 719, 742, 731, 743, 790, 887, 936, 1136, 732, 791, 893, 1411, 850, 708, 878, 980, 702, 729, 792, 1087, 759, 680, 843, 911, 716, 770, 945, 1446, 809, 721, 792, 924, 957, 709, 800, 1128, 1586, 820, 698, 791, 919, 767, 781, 829, 920, 773, 707, 779, 836, 823, 751, 805, 907, 1469, 1064, 718, 783, 891, 860, 784, 715, 737, 829, 719, 833, 829, 1419, 1385, 795, 768, 760, 910, 745, 755, 853, 1029, 843, 732, 813, 1043, 1188, 866, 733, 888, 955, 766, 819, 811, 780, 775, 723, 789, 979, 845, 811, 787, 770, 874, 975, 737, 779, 796, 897, 807, 764, 835, 861, 1263, 1162, 777, 754, 771, 791, 769, 736, 847, 949, 793, 768, 892, 766, 778, 772, 862, 890, 931, 812, 767, 944, 1336, 763, 704, 836, 1007, 948, 787, 731, 766, 978, 847, 779, 902, 973, 1297, 837, 735, 727, 846, 737, 744, 790, 898, 778, 784, 822, 924, 754, 754, 750, 946, 769, 736, 816, 1038, 818, 808, 794, 764, 842, 1026, 865, 781, 713, 792, 1021, 791, 683, 824, 867, 868, 707, 721, 692, 792, 875, 685, 858, 967, 1188, 785, 1006, 1405],
      "WindowCenter": [367.0, 364.0, 361.0, 360.0, 361.0, 360.0, 360.0, 360.0, 361.0, 361.0, 361.0, 363.0, 363.0, 360.0, 360.0, 361.0, 361.0, 361.0, 358.0, 360.0, 360.0, 360.0, 359.0, 360.0, 361.0, 361.0, 360.0, 361.0, 362.0, 361.0, 360.0, 360.0, 362.0, 362.0, 359.0, 361.0, 361.0, 361.0, 361.0, 362.0, 363.0, 363.0, 361.0, 360.0, 361.0, 364.0, 361.0, 360.0, 359.0, 360.0, 362.0, 360.0, 360.0, 360.0, 360.0, 359.0, 360.0, 360.0, 360.0, 360.0, 360.0, 359.0, 361.0, 363.0, 360.0, 359.0, 360.0, 360.0, 360.0, 359.0, 360.0, 360.0, 360.0, 361.0, 359.0, 360.0, 361.0, 361.0, 360.0, 361.0, 362.0, 361.0, 361.0, 363.0, 362.0, 360.0, 359.0, 360.0, 361.0, 361.0, 360.0, 359.0, 360.0, 361.0, 361.0, 359.0, 360.0, 361.0, 361.0, 361.0, 361.0, 362.0, 362.0, 363.0, 360.0, 361.0, 362.0, 364.0, 361.0, 359.0, 361.0, 362.0, 359.0, 359.0, 360.0, 362.0, 360.0, 359.0, 361.0, 361.0, 359.0, 361.0, 362.0, 364.0, 360.0, 359.0, 360.0, 361.0, 361.0, 359.0, 360.0, 362.0, 364.0, 360.0, 359.0, 360.0, 361.0, 359.0, 360.0, 361.0, 361.0, 360.0, 359.0, 361.0, 361.0, 361.0, 360.0, 361.0, 361.0, 364.0, 362.0, 359.0, 360.0, 361.0, 360.0, 360.0, 360.0, 361.0, 361.0, 361.0, 362.0, 361.0, 365.0, 364.0, 360.0, 360.0, 360.0, 361.0, 360.0, 361.0, 361.0, 362.0, 361.0, 360.0, 361.0, 362.0, 363.0, 361.0, 360.0, 361.0, 361.0, 359.0, 360.0, 360.0, 360.0, 360.0, 359.0, 361.0, 362.0, 361.0, 361.0, 361.0, 360.0, 361.0, 361.0, 359.0, 361.0, 361.0, 362.0, 361.0, 360.0, 361.0, 361.0, 363.0, 363.0, 360.0, 360.0, 360.0, 360.0, 360.0, 360.0, 361.0, 362.0, 361.0, 361.0, 361.0, 360.0, 361.0, 361.0, 362.0, 362.0, 362.0, 361.0, 360.0, 361.0, 363.0, 359.0, 359.0, 361.0, 362.0, 361.0, 360.0, 359.0, 360.0, 362.0, 361.0, 361.0, 361.0, 361.0, 363.0, 360.0, 359.0, 359.0, 360.0, 359.0, 359.0, 361.0, 361.0, 360.0, 360.0, 361.0, 361.0, 360.0, 361.0, 361.0, 362.0, 360.0, 360.0, 361.0, 362.0, 361.0, 361.0, 361.0, 360.0, 361.0, 362.0, 360.0, 360.0, 360.0, 361.0, 362.0, 361.0, 359.0, 361.0, 361.0, 360.0, 360.0, 361.0, 361.0, 361.0, 362.0, 360.0, 362.0, 362.0, 364.0, 360.0, 361.0, 365.0],
      "WindowWidth": [782.0, 777.0, 772.0, 772.0, 772.0, 771.0, 770.0, 771.0, 773.0, 773.0, 773.0, 775.0, 775.0, 771.0, 771.0, 772.0, 773.0, 771.0, 769.0, 771.0, 771.0, 771.0, 770.0, 771.0, 772.0, 773.0, 771.0, 772.0, 774.0, 772.0, 771.0, 772.0, 774.0, 774.0, 770.0, 773.0, 773.0, 773.0, 773.0, 774.0, 776.0, 775.0, 772.0, 770.0, 773.0, 776.0, 772.0, 771.0, 770.0, 771.0, 773.0, 770.0, 771.0, 771.0, 771.0, 769.0, 770.0, 772.0, 771.0, 771.0, 771.0, 770.0, 772.0, 775.0, 770.0, 770.0, 771.0, 771.0, 771.0, 770.0, 771.0, 771.0, 771.0, 772.0, 769.0, 771.0, 773.0, 773.0, 771.0, 772.0, 774.0, 773.0, 773.0, 775.0, 774.0, 771.0, 770.0, 771.0, 773.0, 772.0, 771.0, 770.0, 771.0, 772.0, 772.0, 770.0, 771.0, 772.0, 773.0, 773.0, 773.0, 774.0, 774.0, 775.0, 771.0, 772.0, 774.0, 777.0, 772.0, 770.0, 773.0, 773.0, 770.0, 770.0, 771.0, 774.0, 771.0, 770.0, 772.0, 773.0, 770.0, 772.0, 774.0, 776.0, 771.0, 770.0, 772.0, 772.0, 772.0, 769.0, 770.0, 774.0, 776.0, 770.0, 770.0, 772.0, 772.0, 770.0, 771.0, 772.0, 772.0, 771.0, 770.0, 772.0, 773.0, 773.0, 771.0, 772.0, 773.0, 776.0, 773.0, 770.0, 770.0, 772.0, 772.0, 771.0, 772.0, 772.0, 773.0, 773.0, 774.0, 773.0, 778.0, 776.0, 770.0, 771.0, 771.0, 772.0, 770.0, 772.0, 773.0, 774.0, 772.0, 771.0, 773.0, 774.0, 775.0, 772.0, 771.0, 772.0, 773.0, 770.0, 771.0, 772.0, 770.0, 771.0, 770.0, 772.0, 774.0, 772.0, 772.0, 772.0, 771.0, 772.0, 772.0, 770.0, 772.0, 773.0, 774.0, 772.0, 772.0, 773.0, 773.0, 776.0, 775.0, 771.0, 771.0, 771.0, 771.0, 771.0, 772.0, 773.0, 774.0, 773.0, 772.0, 773.0, 771.0, 773.0, 772.0, 774.0, 774.0, 774.0, 773.0, 771.0, 773.0, 776.0, 770.0, 770.0, 772.0, 773.0, 772.0, 771.0, 770.0, 771.0, 773.0, 772.0, 772.0, 773.0, 773.0, 774.0, 770.0, 770.0, 770.0, 771.0, 770.0, 770.0, 772.0, 773.0, 771.0, 771.0, 772.0, 773.0, 771.0, 772.0, 772.0, 773.0, 771.0, 771.0, 772.0, 774.0, 772.0, 772.0, 772.0, 771.0, 773.0, 773.0, 771.0, 771.0, 771.0, 772.0, 774.0, 772.0, 770.0, 773.0, 772.0, 772.0, 771.0, 773.0, 773.0, 774.0, 774.0, 772.0, 774.0, 774.0, 776.0, 771.0, 773.0, 778.0]
    },
    "slices": {}
  }
}