{
  "AcquisitionMatrixPE": 96,
  "AcquisitionNumber": 1,
  "AcquisitionTime": "19:42:14.807500",
  "BandwidthPerPixelPhaseEncode": 18.939,
  "BaseResolution": 96,
  "BodyPartExamined": "BRAIN",
  "ConsistencyInfo": "N4_VE11C_LATEST_20160120",
  "ConversionSoftware": "dcm2niix",
  "ConversionSoftwareVersion": "v1.0.20170923 (OpenJPEG build) GCC6.3.0",
  "DerivedVendorReportedEchoSpacing": 0.000550011,
  "DeviceSerialNumber": "66112",
  "DwellTime": 2.2e-06,
  "EchoTime": 0.033,
  "EchoTrainLength": 96,
  "EffectiveEchoSpacing": 0.000550011,
  "FlipAngle": 59,
  "ImageType": [
    "ORIGINAL",
    "PRIMARY",
    "FMRI",
    "NONE",
    "ND",
    "NORM",
    "MOSAIC"
],
  "InstitutionAddress": "Maynard_3_Hanover_NH_US_03755",
  "InstitutionName": "Dartmouth_College_-_PBS",
  "MagneticFieldStrength": 3,
  "Manufacturer": "Siemens",
  "ManufacturersModelName": "Prisma",
  "Modality": "MR",
  "MultibandAccelerationFactor": 4,
  "PartialFourier": 1,
  "PercentPhaseFOV": 100,
  "PhaseEncodingDirection": "j-",
  "PhaseEncodingSteps": 96,
  "PhaseResolution": 1,
  "ProcedureStepDescription": "Gobbini_Matteo_1038_hyperface",
  "ProtocolName": "func_run-07_task-visualmemory",
  "PulseSequenceDetails": "%SiemensSeq%_ep2d_bold",
  "ReceiveCoilActiveElements": "HEA;HEP",
  "ReceiveCoilName": "Head_32",
  "ReconMatrixPE": 96,
  "RepetitionTime": 1,
  "ScanOptions": "FS",
  "ScanningSequence": "EP",
  "SequenceName": "_epfid2d1_96",
  "SequenceVariant": "SK",
  "SeriesDescription": "func_run-07_task-visualmemory",
  "SliceTiming": [0.735, 0, 0.49, 0.0825, 0.5725, 0.1625, 0.6525, 0.3275, 0.8175, 0.4075, 0.8975, 0.245, 0.735, 0, 0.49, 0.0825, 0.5725, 0.1625, 0.6525, 0.3275, 0.8175, 0.4075, 0.8975, 0.245, 0.735, 0, 0.49, 0.0825, 0.5725, 0.1625, 0.6525, 0.3275, 0.8175, 0.4075, 0.8975, 0.245, 0.735, 0, 0.49, 0.0825, 0.5725, 0.1625, 0.6525, 0.3275, 0.8175, 0.4075, 0.8975, 0.245],
  "SoftwareVersions": "syngo_MR_E11",
  "StationName": "AWP66112",
  "TotalReadoutTime": 0.0522511,
  "dcmmeta_affine": [
    [-2.4942104816436768, -0.1700383722782135, 0.0008187742787413299, 128.72369384765625],
    [-0.16999104619026184, 2.493748426437378, 0.04819004610180855, -98.08399200439453],
    [0.004094389732927084, -0.04802277311682701, 2.499535322189331, -56.58952713012695],
    [0.0, 0.0, 0.0, 1.0]
],
  "dcmmeta_reorient_transform": [
    [0.0, -1.0, 0.0, 95.0],
    [1.0, 0.0, 0.0, 0.0],
    [0.0, 0.0, 1.0, 0.0],
    [0.0, 0.0, 0.0, 1.0]
],
  "dcmmeta_shape": [96, 96, 48, 288],
  "dcmmeta_slice_dim": 2,
  "dcmmeta_version": 0.6,
  "global": {
    "const": {
      "AccessionNumber": "A001142",
      "AcquisitionMatrix": [96, 0, 0, 96],
      "AngioFlag": "N",
      "BitsAllocated": 16,
      "BitsStored": 12,
      "BodyPartExamined": "BRAIN",
      "Columns": 672,
      "EchoNumbers": 1,
      "EchoTime": 33.0,
      "EchoTrainLength": 96,
      "FlipAngle": 59.0,
      "HighBit": 11,
      "ImageOrientationPatient": [0.9976842210626, 0.06799641754222, 0.00163775582428, -0.0680153495919, 0.99749933450194, 0.01920910950781],
      "ImagePositionPatient": [-781.93163220396, -905.97903814715, -76.161433254686],
      "ImageType": [
        "ORIGINAL",
        "PRIMARY",
        "FMRI",
        "NONE",
        "ND",
        "NORM",
        "MOSAIC"
],
      "ImagedNucleus": "1H",
      "ImagingFrequency": 123.252312,
      "InPlanePhaseEncodingDirection": "COL",
      "MRAcquisitionType": "2D",
      "MagneticFieldStrength": 3.0,
      "Manufacturer": "SIEMENS",
      "ManufacturerModelName": "Prisma",
      "Modality": "MR",
      "NumberOfAverages": 1.0,
      "NumberOfPhaseEncodingSteps": 96,
      "PercentPhaseFieldOfView": 100.0,
      "PercentSampling": 100.0,
      "PerformedProcedureStepStartTime": "185927.297000",
      "PhotometricInterpretation": "MONOCHROME2",
      "PixelBandwidth": 2365.0,
      "PixelRepresentation": 0,
      "PixelSpacing": [2.5, 2.5],
      "PositionReferenceIndicator": "",
      "ProtocolName": "func_run-07_task-visualmemory",
      "RepetitionTime": 1000.0,
      "Rows": 672,
      "SAR": 0.05635698738504,
      "SamplesPerPixel": 1,
      "ScanOptions": "FS",
      "ScanningSequence": "EP",
      "SequenceName": "*epfid2d1_96",
      "SequenceVariant": "SK",
      "SeriesDescription": "func_run-07_task-visualmemory",
      "SeriesNumber": 49,
      "SeriesTime": "194215.872000",
      "SliceLocation": -58.427519953596,
      "SliceThickness": 2.5,
      "SmallestImagePixelValue": 0,
      "SoftwareVersions": "syngo MR E11",
      "SpacingBetweenSlices": 2.4999999705777,
      "SpecificCharacterSet": "ISO_IR 100",
      "StudyID": "3",
      "StudyTime": "185927.167000",
      "TransmitCoilName": "Body",
      "VariableFlipAngleFlag": "N",
      "WindowCenterWidthExplanation": "Algo1",
      "dBdt": 0.0},
    "slices": {}
  },
  "time": {
    "samples": {
      "AcquisitionNumber": [1, 2, 3, 4, 5, 6, 7, 8, 9, 10, 11, 12, 13, 14, 15, 16, 17, 18, 19, 20, 21, 22, 23, 24, 25, 26, 27, 28, 29, 30, 31, 32, 33, 34, 35, 36, 37, 38, 39, 40, 41, 42, 43, 44, 45, 46, 47, 48, 49, 50, 51, 52, 53, 54, 55, 56, 57, 58, 59, 60, 61, 62, 63, 64, 65, 66, 67, 68, 69, 70, 71, 72, 73, 74, 75, 76, 77, 78, 79, 80, 81, 82, 83, 84, 85, 86, 87, 88, 89, 90, 91, 92, 93, 94, 95, 96, 97, 98, 99, 100, 101, 102, 103, 104, 105, 106, 107, 108, 109, 110, 111, 112, 113, 114, 115, 116, 117, 118, 119, 120, 121, 122, 123, 124, 125, 126, 127, 128, 129, 130, 131, 132, 133, 134, 135, 136, 137, 138, 139, 140, 141, 142, 143, 144, 145, 146, 147, 148, 149, 150, 151, 152, 153, 154, 155, 156, 157, 158, 159, 160, 161, 162, 163, 164, 165, 166, 167, 168, 169, 170, 171, 172, 173, 174, 175, 176, 177, 178, 179, 180, 181, 182, 183, 184, 185, 186, 187, 188, 189, 190, 191, 192, 193, 194, 195, 196, 197, 198, 199, 200, 201, 202, 203, 204, 205, 206, 207, 208, 209, 210, 211, 212, 213, 214, 215, 216, 217, 218, 219, 220, 221, 222, 223, 224, 225, 226, 227, 228, 229, 230, 231, 232, 233, 234, 235, 236, 237, 238, 239, 240, 241, 242, 243, 244, 245, 246, 247, 248, 249, 250, 251, 252, 253, 254, 255, 256, 257, 258, 259, 260, 261, 262, 263, 264, 265, 266, 267, 268, 269, 270, 271, 272, 273, 274, 275, 276, 277, 278, 279, 280, 281, 282, 283, 284, 285, 286, 287, 288],
      "AcquisitionTime": ["194214.807500", "194215.807500", "194216.807500", "194217.807500", "194218.807500", "194219.807500", "194220.807500", "194221.807500", "194222.807500", "194223.807500", "194224.807500", "194225.807500", "194226.807500", "194227.807500", "194228.807500", "194229.807500", "194230.807500", "194231.807500", "194232.807500", "194233.807500", "194234.807500", "194235.807500", "194236.807500", "194237.807500", "194238.807500", "194239.807500", "194240.807500", "194241.807500", "194242.807500", "194243.807500", "194244.807500", "194245.807500", "194246.807500", "194247.807500", "194248.807500", "194249.807500", "194250.807500", "194251.807500", "194252.807500", "194253.807500", "194254.807500", "194255.807500", "194256.807500", "194257.807500", "194258.807500", "194259.807500", "194300.807500", "194301.807500", "194302.807500", "194303.807500", "194304.807500", "194305.807500", "194306.807500", "194307.807500", "194308.807500", "194309.807500", "194310.807500", "194311.807500", "194312.807500", "194313.807500", "194314.807500", "194315.807500", "194316.807500", "194317.807500", "194318.807500", "194319.807500", "194320.807500", "194321.807500", "194322.807500", "194323.807500", "194324.807500", "194325.807500", "194326.807500", "194327.807500", "194328.807500", "194329.807500", "194330.807500", "194331.807500", "194332.807500", "194333.807500", "194334.807500", "194335.807500", "194336.807500", "194337.807500", "194338.807500", "194339.807500", "194340.807500", "194341.807500", "194342.807500", "194343.807500", "194344.807500", "194345.807500", "194346.807500", "194347.807500", "194348.807500", "194349.807500", "194350.807500", "194351.807500", "194352.807500", "194353.807500", "194354.807500", "194355.807500", "194356.807500", "194357.807500", "194358.807500", "194359.807500", "194400.807500", "194401.807500", "194402.807500", "194403.807500", "194404.807500", "194405.807500", "194406.807500", "194407.807500", "194408.807500", "194409.807500", "194410.807500", "194411.807500", "194412.807500", "194413.807500", "194414.807500", "194415.807500", "194416.807500", "194417.807500", "194418.807500", "194419.807500", "194420.807500", "194421.807500", "194422.807500", "194423.807500", "194424.807500", "194425.807500", "194426.807500", "194427.807500", "194428.807500", "194429.807500", "194430.807500", "194431.807500", "194432.807500", "194433.807500", "194434.807500", "194435.807500", "194436.807500", "194437.807500", "194438.807500", "194439.807500", "194440.807500", "194441.807500", "194442.807500", "194443.807500", "194444.807500", "194445.807500", "194446.807500", "194447.807500", "194448.807500", "194449.807500", "194450.807500", "194451.807500", "194452.807500", "194453.807500", "194454.807500", "194455.807500", "194456.807500", "194457.807500", "194458.807500", "194459.807500", "194500.807500", "194501.807500", "194502.807500", "194503.807500", "194504.807500", "194505.807500", "194506.807500", "194507.807500", "194508.807500", "194509.807500", "194510.807500", "194511.807500", "194512.807500", "194513.807500", "194514.807500", "194515.807500", "194516.807500", "194517.807500", "194518.807500", "194519.807500", "194520.807500", "194521.807500", "194522.807500", "194523.807500", "194524.807500", "194525.807500", "194526.807500", "194527.807500", "194528.807500", "194529.807500", "194530.807500", "194531.807500", "194532.807500", "194533.807500", "194534.807500", "194535.807500", "194536.807500", "194537.807500", "194538.807500", "194539.807500", "194540.807500", "194541.807500", "194542.807500", "194543.807500", "194544.807500", "194545.807500", "194546.807500", "194547.807500", "194548.807500", "194549.807500", "194550.807500", "194551.807500", "194552.807500", "194553.807500", "194554.807500", "194555.807500", "194556.807500", "194557.807500", "194558.807500", "194559.807500", "194600.807500", "194601.807500", "194602.807500", "194603.807500", "194604.807500", "194605.807500", "194606.807500", "194607.807500", "194608.807500", "194609.807500", "194610.807500", "194611.807500", "194612.807500", "194613.807500", "194614.807500", "194615.807500", "194616.807500", "194617.807500", "194618.807500", "194619.807500", "194620.807500", "194621.807500", "194622.807500", "194623.807500", "194624.807500", "194625.807500", "194626.807500", "194627.807500", "194628.807500", "194629.807500", "194630.807500", "194631.807500", "194632.807500", "194633.807500", "194634.807500", "194635.807500", "194636.807500", "194637.807500", "194638.807500", "194639.807500", "194640.807500", "194641.807500", "194642.807500", "194643.807500", "194644.807500", "194645.807500", "194646.807500", "194647.807500", "194648.807500", "194649.807500", "194650.807500", "194651.807500", "194652.807500", "194653.807500", "194654.807500", "194655.807500", "194656.807500", "194657.807500", "194658.807500", "194659.807500", "194700.807500", "194701.807500"],
      "ContentTime": ["194215.883000", "194216.724000", "194217.700000", "194218.726000", "194219.750000", "194220.685000", "194221.736000", "194222.691000", "194223.709000", "194224.678000", "194225.700000", "194226.709000", "194227.687000", "194228.702000", "194229.714000", "194230.708000", "194231.663000", "194232.685000", "194233.768000", "194234.722000", "194235.677000", "194236.687000", "194237.688000", "194238.714000", "194239.727000", "194240.704000", "194241.705000", "194242.711000", "194243.743000", "194244.731000", "194245.686000", "194246.700000", "194247.720000", "194248.697000", "194249.763000", "194250.763000", "194251.705000", "194252.736000", "194253.786000", "194254.710000", "194255.687000", "194256.712000", "194257.700000", "194258.695000", "194259.693000", "194300.699000", "194301.723000", "194302.708000", "194303.701000", "194304.684000", "194305.765000", "194306.713000", "194307.667000", "194308.699000", "194309.719000", "194310.740000", "194311.709000", "194312.726000", "194313.710000", "194314.723000", "194315.699000", "194316.726000", "194317.724000", "194318.710000", "194319.697000", "194320.693000", "194321.682000", "194322.702000", "194323.690000", "194324.689000", "194325.699000", "194326.697000", "194327.694000", "194328.713000", "194329.674000", "194330.724000", "194331.812000", "194332.740000", "194333.708000", "194334.702000", "194335.693000", "194336.696000", "194337.712000", "194338.694000", "194339.716000", "194340.709000", "194341.706000", "194342.683000", "194343.751000", "194344.684000", "194345.754000", "194346.704000", "194347.742000", "194348.671000", "194349.691000", "194350.710000", "194351.727000", "194352.716000", "194353.710000", "194354.682000", "194355.718000", "194356.709000", "194357.675000", "194358.718000", "194359.765000", "194400.711000", "194401.752000", "194402.750000", "194403.747000", "194404.707000", "194405.710000", "194406.703000", "194407.706000", "194408.721000", "194409.689000", "194410.714000", "194411.741000", "194412.725000", "194413.727000", "194414.713000", "194415.736000", "194416.733000", "194417.700000", "194418.742000", "194419.719000", "194420.731000", "194421.722000", "194422.741000", "194423.729000", "194424.715000", "194425.700000", "194426.696000", "194427.710000", "194428.714000", "194429.718000", "194430.717000", "194431.700000", "194432.733000", "194433.699000", "194434.755000", "194435.816000", "194436.722000", "194437.795000", "194438.789000", "194439.751000", "194440.721000", "194441.734000", "194442.715000", "194443.722000", "194444.706000", "194445.707000", "194446.743000", "194447.722000", "194448.752000", "194449.711000", "194450.704000", "194451.687000", "194452.736000", "194453.726000", "194454.750000", "194455.745000", "194456.734000", "194457.736000", "194458.786000", "194459.700000", "194500.684000", "194501.699000", "194502.729000", "194503.744000", "194504.696000", "194505.697000", "194506.702000", "194507.794000", "194508.704000", "194509.682000", "194510.763000", "194511.713000", "194512.721000", "194513.690000", "194514.723000", "194515.693000", "194516.682000", "194517.717000", "194518.704000", "194519.719000", "194520.700000", "194521.711000", "194522.719000", "194523.743000", "194524.717000", "194525.710000", "194526.715000", "194527.706000", "194528.693000", "194529.784000", "194530.745000", "194531.792000", "194532.711000", "194533.710000", "194534.682000", "194535.711000", "194536.706000", "194537.720000", "194538.707000", "194539.689000", "194540.703000", "194541.692000", "194542.723000", "194543.741000", "194544.728000", "194545.697000", "194546.676000", "194547.745000", "194548.716000", "194549.709000", "194550.704000", "194551.698000", "194552.702000", "194553.703000", "194554.707000", "194555.709000", "194556.683000", "194557.689000", "194558.720000", "194559.712000", "194600.709000", "194601.719000", "194602.739000", "194603.723000", "194604.688000", "194605.682000", "194606.708000", "194607.740000", "194608.709000", "194609.688000", "194610.719000", "194611.704000", "194612.724000", "194613.690000", "194614.711000", "194615.731000", "194616.714000", "194617.720000", "194618.811000", "194619.710000", "194620.692000", "194621.721000", "194622.738000", "194623.751000", "194624.710000", "194625.724000", "194626.701000", "194627.722000", "194628.709000", "194629.716000", "194630.705000", "194631.703000", "194632.706000", "194633.691000", "194634.728000", "194635.724000", "194636.702000", "194637.720000", "194638.752000", "194639.720000", "194640.705000", "194641.727000", "194642.705000", "194643.734000", "194644.728000", "194645.707000", "194646.717000", "194647.700000", "194648.704000", "194649.700000", "194650.736000", "194651.695000", "194652.716000", "194653.704000", "194654.724000", "194655.705000", "194656.703000", "194657.710000", "194658.738000", "194659.725000", "194700.716000", "194701.682000", "194702.719000"],
      "InstanceCreationTime": ["194215.883000", "194216.724000", "194217.700000", "194218.726000", "194219.750000", "194220.685000", "194221.736000", "194222.691000", "194223.709000", "194224.678000", "194225.700000", "194226.709000", "194227.687000", "194228.702000", "194229.714000", "194230.708000", "194231.663000", "194232.685000", "194233.768000", "194234.722000", "194235.677000", "194236.687000", "194237.688000", "194238.714000", "194239.727000", "194240.704000", "194241.705000", "194242.711000", "194243.743000", "194244.731000", "194245.686000", "194246.700000", "194247.720000", "194248.697000", "194249.763000", "194250.763000", "194251.705000", "194252.736000", "194253.786000", "194254.710000", "194255.687000", "194256.712000", "194257.700000", "194258.695000", "194259.693000", "194300.699000", "194301.723000", "194302.708000", "194303.701000", "194304.684000", "194305.765000", "194306.713000", "194307.667000", "194308.699000", "194309.719000", "194310.740000", "194311.709000", "194312.726000", "194313.710000", "194314.723000", "194315.699000", "194316.726000", "194317.724000", "194318.710000", "194319.697000", "194320.693000", "194321.682000", "194322.702000", "194323.690000", "194324.689000", "194325.699000", "194326.697000", "194327.694000", "194328.713000", "194329.674000", "194330.724000", "194331.812000", "194332.740000", "194333.708000", "194334.702000", "194335.693000", "194336.696000", "194337.712000", "194338.694000", "194339.716000", "194340.709000", "194341.706000", "194342.683000", "194343.751000", "194344.684000", "194345.754000", "194346.704000", "194347.742000", "194348.671000", "194349.691000", "194350.710000", "194351.727000", "194352.716000", "194353.710000", "194354.682000", "194355.718000", "194356.709000", "194357.675000", "194358.718000", "194359.765000", "194400.711000", "194401.752000", "194402.750000", "194403.747000", "194404.707000", "194405.710000", "194406.703000", "194407.706000", "194408.721000", "194409.689000", "194410.714000", "194411.741000", "194412.725000", "194413.727000", "194414.713000", "194415.736000", "194416.733000", "194417.700000", "194418.742000", "194419.719000", "194420.731000", "194421.722000", "194422.741000", "194423.729000", "194424.715000", "194425.700000", "194426.696000", "194427.710000", "194428.714000", "194429.718000", "194430.717000", "194431.700000", "194432.733000", "194433.699000", "194434.755000", "194435.816000", "194436.722000", "194437.795000", "194438.789000", "194439.751000", "194440.721000", "194441.734000", "194442.715000", "194443.722000", "194444.706000", "194445.707000", "194446.743000", "194447.722000", "194448.752000", "194449.711000", "194450.704000", "194451.687000", "194452.736000", "194453.726000", "194454.750000", "194455.745000", "194456.734000", "194457.736000", "194458.786000", "194459.700000", "194500.684000", "194501.699000", "194502.729000", "194503.744000", "194504.696000", "194505.697000", "194506.702000", "194507.794000", "194508.704000", "194509.682000", "194510.763000", "194511.713000", "194512.721000", "194513.690000", "194514.723000", "194515.693000", "194516.682000", "194517.717000", "194518.704000", "194519.719000", "194520.700000", "194521.711000", "194522.719000", "194523.743000", "194524.717000", "194525.710000", "194526.715000", "194527.706000", "194528.693000", "194529.784000", "194530.745000", "194531.792000", "194532.711000", "194533.710000", "194534.682000", "194535.711000", "194536.706000", "194537.720000", "194538.707000", "194539.689000", "194540.703000", "194541.692000", "194542.723000", "194543.741000", "194544.728000", "194545.697000", "194546.676000", "194547.745000", "194548.716000", "194549.709000", "194550.704000", "194551.698000", "194552.702000", "194553.703000", "194554.707000", "194555.709000", "194556.683000", "194557.689000", "194558.720000", "194559.712000", "194600.709000", "194601.719000", "194602.739000", "194603.723000", "194604.688000", "194605.682000", "194606.708000", "194607.740000", "194608.709000", "194609.688000", "194610.719000", "194611.704000", "194612.724000", "194613.690000", "194614.711000", "194615.731000", "194616.714000", "194617.720000", "194618.811000", "194619.710000", "194620.692000", "194621.721000", "194622.738000", "194623.751000", "194624.710000", "194625.724000", "194626.701000", "194627.722000", "194628.709000", "194629.716000", "194630.705000", "194631.703000", "194632.706000", "194633.691000", "194634.728000", "194635.724000", "194636.702000", "194637.720000", "194638.752000", "194639.720000", "194640.705000", "194641.727000", "194642.705000", "194643.734000", "194644.728000", "194645.707000", "194646.717000", "194647.700000", "194648.704000", "194649.700000", "194650.736000", "194651.695000", "194652.716000", "194653.704000", "194654.724000", "194655.705000", "194656.703000", "194657.710000", "194658.738000", "194659.725000", "194700.716000", "194701.682000", "194702.719000"],
      "InstanceNumber": [1, 2, 3, 4, 5, 6, 7, 8, 9, 10, 11, 12, 13, 14, 15, 16, 17, 18, 19, 20, 21, 22, 23, 24, 25, 26, 27, 28, 29, 30, 31, 32, 33, 34, 35, 36, 37, 38, 39, 40, 41, 42, 43, 44, 45, 46, 47, 48, 49, 50, 51, 52, 53, 54, 55, 56, 57, 58, 59, 60, 61, 62, 63, 64, 65, 66, 67, 68, 69, 70, 71, 72, 73, 74, 75, 76, 77, 78, 79, 80, 81, 82, 83, 84, 85, 86, 87, 88, 89, 90, 91, 92, 93, 94, 95, 96, 97, 98, 99, 100, 101, 102, 103, 104, 105, 106, 107, 108, 109, 110, 111, 112, 113, 114, 115, 116, 117, 118, 119, 120, 121, 122, 123, 124, 125, 126, 127, 128, 129, 130, 131, 132, 133, 134, 135, 136, 137, 138, 139, 140, 141, 142, 143, 144, 145, 146, 147, 148, 149, 150, 151, 152, 153, 154, 155, 156, 157, 158, 159, 160, 161, 162, 163, 164, 165, 166, 167, 168, 169, 170, 171, 172, 173, 174, 175, 176, 177, 178, 179, 180, 181, 182, 183, 184, 185, 186, 187, 188, 189, 190, 191, 192, 193, 194, 195, 196, 197, 198, 199, 200, 201, 202, 203, 204, 205, 206, 207, 208, 209, 210, 211, 212, 213, 214, 215, 216, 217, 218, 219, 220, 221, 222, 223, 224, 225, 226, 227, 228, 229, 230, 231, 232, 233, 234, 235, 236, 237, 238, 239, 240, 241, 242, 243, 244, 245, 246, 247, 248, 249, 250, 251, 252, 253, 254, 255, 256, 257, 258, 259, 260, 261, 262, 263, 264, 265, 266, 267, 268, 269, 270, 271, 272, 273, 274, 275, 276, 277, 278, 279, 280, 281, 282, 283, 284, 285, 286, 287, 288],
      "LargestImagePixelValue": [846, 759, 778, 823, 949, 1116, 948, 742, 691, 939, 909, 978, 847, 739, 727, 787, 986, 1041, 729, 814, 917, 1435, 1093, 833, 805, 866, 855, 809, 762, 708, 725, 834, 887, 955, 757, 784, 769, 800, 930, 1092, 756, 728, 883, 936, 1121, 743, 703, 731, 894, 908, 889, 1395, 1154, 899, 777, 843, 846, 1023, 715, 724, 738, 822, 860, 752, 803, 816, 742, 866, 1048, 748, 805, 900, 1454, 1341, 727, 751, 771, 950, 984, 751, 772, 902, 1103, 793, 753, 879, 864, 1177, 806, 676, 739, 875, 1176, 1224, 959, 787, 706, 719, 722, 847, 866, 713, 772, 772, 981, 852, 732, 743, 878, 989, 1532, 1152, 721, 720, 779, 966, 815, 774, 862, 985, 1299, 1328, 720, 705, 681, 848, 961, 695, 718, 874, 875, 1123, 964, 795, 749, 778, 875, 839, 789, 734, 699, 794, 969, 761, 702, 896, 935, 949, 701, 716, 746, 842, 763, 794, 847, 1366, 930, 748, 828, 956, 963, 1313, 741, 716, 851, 1065, 1119, 748, 736, 811, 1096, 863, 859, 762, 786, 754, 723, 755, 760, 884, 1329, 939, 712, 755, 854, 1014, 730, 847, 844, 806, 733, 726, 863, 914, 749, 748, 747, 801, 796, 763, 733, 763, 876, 744, 775, 783, 803, 831, 748, 678, 827, 1083, 1172, 728, 745, 975, 1628, 1131, 913, 843, 799, 746, 680, 823, 883, 712, 756, 782, 1060, 850, 694, 735, 879, 748, 713, 863, 919, 841, 721, 721, 802, 782, 1147, 1380, 794, 829, 1259, 1425, 1008, 818, 838, 760, 798, 844, 965, 1037, 742, 744, 849, 1000, 1610, 1050, 745, 773, 797, 905, 771, 732, 759, 781, 787, 701, 750, 783, 943, 1029, 709, 839, 706, 836, 990, 1173, 1269, 732, 781, 692, 842, 1048],
      "WindowCenter": [361.0, 360.0, 360.0, 360.0, 362.0, 362.0, 361.0, 360.0, 360.0, 362.0, 361.0, 361.0, 360.0, 361.0, 361.0, 362.0, 363.0, 363.0, 360.0, 360.0, 361.0, 364.0, 362.0, 360.0, 360.0, 361.0, 361.0, 360.0, 359.0, 359.0, 359.0, 361.0, 361.0, 361.0, 360.0, 360.0, 361.0, 361.0, 362.0, 363.0, 360.0, 360.0, 362.0, 362.0, 363.0, 359.0, 359.0, 360.0, 362.0, 361.0, 361.0, 364.0, 363.0, 361.0, 360.0, 361.0, 360.0, 361.0, 359.0, 359.0, 360.0, 360.0, 361.0, 360.0, 361.0, 361.0, 360.0, 361.0, 362.0, 360.0, 361.0, 361.0, 364.0, 363.0, 359.0, 360.0, 360.0, 362.0, 362.0, 360.0, 361.0, 361.0, 362.0, 360.0, 360.0, 361.0, 361.0, 363.0, 360.0, 359.0, 360.0, 361.0, 363.0, 362.0, 360.0, 359.0, 358.0, 360.0, 360.0, 361.0, 361.0, 360.0, 361.0, 361.0, 362.0, 361.0, 360.0, 360.0, 361.0, 362.0, 364.0, 362.0, 359.0, 360.0, 361.0, 362.0, 360.0, 360.0, 360.0, 361.0, 363.0, 362.0, 359.0, 359.0, 359.0, 361.0, 362.0, 359.0, 359.0, 361.0, 361.0, 362.0, 361.0, 360.0, 359.0, 360.0, 360.0, 360.0, 359.0, 359.0, 360.0, 361.0, 362.0, 360.0, 359.0, 361.0, 361.0, 361.0, 359.0, 360.0, 361.0, 361.0, 361.0, 361.0, 361.0, 364.0, 362.0, 359.0, 360.0, 361.0, 362.0, 363.0, 359.0, 360.0, 361.0, 362.0, 362.0, 358.0, 358.0, 359.0, 361.0, 359.0, 359.0, 359.0, 359.0, 359.0, 359.0, 360.0, 360.0, 360.0, 363.0, 360.0, 358.0, 359.0, 360.0, 361.0, 358.0, 360.0, 360.0, 359.0, 358.0, 358.0, 360.0, 361.0, 359.0, 360.0, 360.0, 361.0, 361.0, 360.0, 360.0, 360.0, 361.0, 360.0, 361.0, 361.0, 361.0, 361.0, 361.0, 360.0, 361.0, 363.0, 363.0, 359.0, 360.0, 362.0, 365.0, 362.0, 361.0, 360.0, 359.0, 359.0, 359.0, 360.0, 360.0, 359.0, 360.0, 360.0, 362.0, 360.0, 359.0, 360.0, 361.0, 359.0, 359.0, 360.0, 361.0, 360.0, 359.0, 360.0, 361.0, 361.0, 363.0, 364.0, 360.0, 360.0, 363.0, 364.0, 361.0, 359.0, 359.0, 360.0, 361.0, 361.0, 362.0, 361.0, 359.0, 359.0, 360.0, 361.0, 364.0, 360.0, 358.0, 359.0, 360.0, 360.0, 360.0, 359.0, 360.0, 361.0, 360.0, 359.0, 360.0, 360.0, 361.0, 361.0, 359.0, 361.0, 360.0, 361.0, 362.0, 363.0, 363.0, 359.0, 360.0, 359.0, 361.0, 362.0],
      "WindowWidth": [773.0, 771.0, 772.0, 772.0, 773.0, 774.0, 772.0, 771.0, 771.0, 773.0, 772.0, 773.0, 771.0, 772.0, 774.0, 775.0, 776.0, 775.0, 771.0, 772.0, 773.0, 777.0, 774.0, 771.0, 771.0, 772.0, 772.0, 770.0, 770.0, 769.0, 770.0, 772.0, 772.0, 773.0, 771.0, 771.0, 772.0, 772.0, 773.0, 775.0, 772.0, 772.0, 774.0, 774.0, 775.0, 770.0, 770.0, 772.0, 774.0, 773.0, 772.0, 776.0, 774.0, 772.0, 772.0, 773.0, 771.0, 772.0, 770.0, 770.0, 771.0, 772.0, 773.0, 771.0, 772.0, 773.0, 772.0, 773.0, 774.0, 771.0, 772.0, 772.0, 777.0, 775.0, 770.0, 770.0, 772.0, 773.0, 773.0, 771.0, 772.0, 772.0, 773.0, 771.0, 771.0, 773.0, 772.0, 775.0, 771.0, 770.0, 772.0, 772.0, 774.0, 774.0, 770.0, 769.0, 769.0, 771.0, 771.0, 773.0, 773.0, 772.0, 773.0, 773.0, 775.0, 773.0, 771.0, 771.0, 772.0, 773.0, 777.0, 773.0, 769.0, 771.0, 772.0, 773.0, 772.0, 771.0, 771.0, 773.0, 775.0, 774.0, 769.0, 769.0, 770.0, 773.0, 773.0, 770.0, 770.0, 773.0, 772.0, 774.0, 772.0, 770.0, 770.0, 771.0, 771.0, 770.0, 769.0, 770.0, 771.0, 773.0, 773.0, 771.0, 770.0, 773.0, 773.0, 772.0, 770.0, 771.0, 772.0, 773.0, 772.0, 774.0, 774.0, 777.0, 773.0, 770.0, 771.0, 773.0, 773.0, 775.0, 769.0, 771.0, 772.0, 774.0, 774.0, 768.0, 769.0, 770.0, 772.0, 769.0, 769.0, 769.0, 769.0, 769.0, 769.0, 771.0, 770.0, 771.0, 774.0, 771.0, 768.0, 769.0, 771.0, 771.0, 768.0, 770.0, 770.0, 769.0, 768.0, 768.0, 771.0, 772.0, 770.0, 771.0, 771.0, 773.0, 772.0, 771.0, 772.0, 772.0, 773.0, 771.0, 772.0, 772.0, 772.0, 772.0, 772.0, 772.0, 773.0, 776.0, 775.0, 770.0, 771.0, 773.0, 778.0, 773.0, 772.0, 771.0, 770.0, 769.0, 769.0, 771.0, 771.0, 770.0, 771.0, 772.0, 774.0, 771.0, 770.0, 771.0, 772.0, 770.0, 770.0, 771.0, 772.0, 771.0, 770.0, 772.0, 773.0, 773.0, 775.0, 776.0, 771.0, 772.0, 775.0, 776.0, 771.0, 768.0, 769.0, 770.0, 772.0, 773.0, 773.0, 773.0, 769.0, 770.0, 772.0, 773.0, 776.0, 771.0, 768.0, 769.0, 770.0, 771.0, 770.0, 770.0, 771.0, 772.0, 770.0, 770.0, 771.0, 772.0, 773.0, 773.0, 770.0, 772.0, 771.0, 773.0, 774.0, 774.0, 775.0, 769.0, 770.0, 770.0, 772.0, 774.0]
    },
    "slices": {}
  }
}