{
  "AcquisitionMatrixPE": 96,
  "AcquisitionNumber": 1,
  "AcquisitionTime": "19:36:48.302500",
  "BandwidthPerPixelPhaseEncode": 18.939,
  "BaseResolution": 96,
  "BodyPartExamined": "BRAIN",
  "ConsistencyInfo": "N4_VE11C_LATEST_20160120",
  "ConversionSoftware": "dcm2niix",
  "ConversionSoftwareVersion": "v1.0.20170923 (OpenJPEG build) GCC6.3.0",
  "DerivedVendorReportedEchoSpacing": 0.000550011,
  "DeviceSerialNumber": "66112",
  "DwellTime": 2.2e-06,
  "EchoTime": 0.033,
  "EchoTrainLength": 96,
  "EffectiveEchoSpacing": 0.000550011,
  "FlipAngle": 59,
  "ImageType": [
    "ORIGINAL",
    "PRIMARY",
    "FMRI",
    "NONE",
    "ND",
    "NORM",
    "MOSAIC"
],
  "InstitutionAddress": "Maynard_3_Hanover_NH_US_03755",
  "InstitutionName": "Dartmouth_College_-_PBS",
  "MagneticFieldStrength": 3,
  "Manufacturer": "Siemens",
  "ManufacturersModelName": "Prisma",
  "Modality": "MR",
  "MultibandAccelerationFactor": 4,
  "PartialFourier": 1,
  "PercentPhaseFOV": 100,
  "PhaseEncodingDirection": "j-",
  "PhaseEncodingSteps": 96,
  "PhaseResolution": 1,
  "ProcedureStepDescription": "Gobbini_Matteo_1038_hyperface",
  "ProtocolName": "func_run-06_task-visualmemory",
  "PulseSequenceDetails": "%SiemensSeq%_ep2d_bold",
  "ReceiveCoilActiveElements": "HEA;HEP",
  "ReceiveCoilName": "Head_32",
  "ReconMatrixPE": 96,
  "RepetitionTime": 1,
  "ScanOptions": "FS",
  "ScanningSequence": "EP",
  "SequenceName": "_epfid2d1_96",
  "SequenceVariant": "SK",
  "SeriesDescription": "func_run-06_task-visualmemory",
  "SliceTiming": [0.735, 0, 0.49, 0.08, 0.57, 0.1625, 0.6525, 0.325, 0.815, 0.4075, 0.8975, 0.245, 0.735, 0, 0.49, 0.08, 0.57, 0.1625, 0.6525, 0.325, 0.815, 0.4075, 0.8975, 0.245, 0.735, 0, 0.49, 0.08, 0.57, 0.1625, 0.6525, 0.325, 0.815, 0.4075, 0.8975, 0.245, 0.735, 0, 0.49, 0.08, 0.57, 0.1625, 0.6525, 0.325, 0.815, 0.4075, 0.8975, 0.245],
  "SoftwareVersions": "syngo_MR_E11",
  "StationName": "AWP66112",
  "TotalReadoutTime": 0.0522511,
  "dcmmeta_affine": [
    [-2.4942104816436768, -0.1700383722782135, 0.0008187742787413299, 128.72369384765625],
    [-0.16999104619026184, 2.493748426437378, 0.04819004610180855, -98.08399200439453],
    [0.004094389732927084, -0.04802277311682701, 2.499535322189331, -56.58952713012695],
    [0.0, 0.0, 0.0, 1.0]
],
  "dcmmeta_reorient_transform": [
    [0.0, -1.0, 0.0, 95.0],
    [1.0, 0.0, 0.0, 0.0],
    [0.0, 0.0, 1.0, 0.0],
    [0.0, 0.0, 0.0, 1.0]
],
  "dcmmeta_shape": [96, 96, 48, 288],
  "dcmmeta_slice_dim": 2,
  "dcmmeta_version": 0.6,
  "global": {
    "const": {
      "AccessionNumber": "A001142",
      "AcquisitionMatrix": [96, 0, 0, 96],
      "AngioFlag": "N",
      "BitsAllocated": 16,
      "BitsStored": 12,
      "BodyPartExamined": "BRAIN",
      "Columns": 672,
      "EchoNumbers": 1,
      "EchoTime": 33.0,
      "EchoTrainLength": 96,
      "FlipAngle": 59.0,
      "HighBit": 11,
      "ImageOrientationPatient": [0.9976842210626, 0.06799641754222, 0.00163775582428, -0.0680153495919, 0.99749933450194, 0.01920910950781],
      "ImagePositionPatient": [-781.93163220396, -905.97903814715, -76.161433254686],
      "ImageType": [
        "ORIGINAL",
        "PRIMARY",
        "FMRI",
        "NONE",
        "ND",
        "NORM",
        "MOSAIC"
],
      "ImagedNucleus": "1H",
      "ImagingFrequency": 123.25231,
      "InPlanePhaseEncodingDirection": "COL",
      "MRAcquisitionType": "2D",
      "MagneticFieldStrength": 3.0,
      "Manufacturer": "SIEMENS",
      "ManufacturerModelName": "Prisma",
      "Modality": "MR",
      "NumberOfAverages": 1.0,
      "NumberOfPhaseEncodingSteps": 96,
      "PercentPhaseFieldOfView": 100.0,
      "PercentSampling": 100.0,
      "PerformedProcedureStepStartTime": "185927.297000",
      "PhotometricInterpretation": "MONOCHROME2",
      "PixelBandwidth": 2365.0,
      "PixelRepresentation": 0,
      "PixelSpacing": [2.5, 2.5],
      "PositionReferenceIndicator": "",
      "ProtocolName": "func_run-06_task-visualmemory",
      "RepetitionTime": 1000.0,
      "Rows": 672,
      "SAR": 0.05635698738504,
      "SamplesPerPixel": 1,
      "ScanOptions": "FS",
      "ScanningSequence": "EP",
      "SequenceName": "*epfid2d1_96",
      "SequenceVariant": "SK",
      "SeriesDescription": "func_run-06_task-visualmemory",
      "SeriesNumber": 42,
      "SeriesTime": "193649.644000",
      "SliceLocation": -58.427519953596,
      "SliceThickness": 2.5,
      "SmallestImagePixelValue": 0,
      "SoftwareVersions": "syngo MR E11",
      "SpacingBetweenSlices": 2.4999999705777,
      "SpecificCharacterSet": "ISO_IR 100",
      "StudyID": "3",
      "StudyTime": "185927.167000",
      "TransmitCoilName": "Body",
      "VariableFlipAngleFlag": "N",
      "WindowCenterWidthExplanation": "Algo1",
      "dBdt": 0.0},
    "slices": {}
  },
  "time": {
    "samples": {
      "AcquisitionNumber": [1, 2, 3, 4, 5, 6, 7, 8, 9, 10, 11, 12, 13, 14, 15, 16, 17, 18, 19, 20, 21, 22, 23, 24, 25, 26, 27, 28, 29, 30, 31, 32, 33, 34, 35, 36, 37, 38, 39, 40, 41, 42, 43, 44, 45, 46, 47, 48, 49, 50, 51, 52, 53, 54, 55, 56, 57, 58, 59, 60, 61, 62, 63, 64, 65, 66, 67, 68, 69, 70, 71, 72, 73, 74, 75, 76, 77, 78, 79, 80, 81, 82, 83, 84, 85, 86, 87, 88, 89, 90, 91, 92, 93, 94, 95, 96, 97, 98, 99, 100, 101, 102, 103, 104, 105, 106, 107, 108, 109, 110, 111, 112, 113, 114, 115, 116, 117, 118, 119, 120, 121, 122, 123, 124, 125, 126, 127, 128, 129, 130, 131, 132, 133, 134, 135, 136, 137, 138, 139, 140, 141, 142, 143, 144, 145, 146, 147, 148, 149, 150, 151, 152, 153, 154, 155, 156, 157, 158, 159, 160, 161, 162, 163, 164, 165, 166, 167, 168, 169, 170, 171, 172, 173, 174, 175, 176, 177, 178, 179, 180, 181, 182, 183, 184, 185, 186, 187, 188, 189, 190, 191, 192, 193, 194, 195, 196, 197, 198, 199, 200, 201, 202, 203, 204, 205, 206, 207, 208, 209, 210, 211, 212, 213, 214, 215, 216, 217, 218, 219, 220, 221, 222, 223, 224, 225, 226, 227, 228, 229, 230, 231, 232, 233, 234, 235, 236, 237, 238, 239, 240, 241, 242, 243, 244, 245, 246, 247, 248, 249, 250, 251, 252, 253, 254, 255, 256, 257, 258, 259, 260, 261, 262, 263, 264, 265, 266, 267, 268, 269, 270, 271, 272, 273, 274, 275, 276, 277, 278, 279, 280, 281, 282, 283, 284, 285, 286, 287, 288],
      "AcquisitionTime": ["193648.302500", "193649.302500", "193650.302500", "193651.302500", "193652.302500", "193653.302500", "193654.302500", "193655.302500", "193656.302500", "193657.302500", "193658.302500", "193659.302500", "193700.302500", "193701.302500", "193702.302500", "193703.302500", "193704.302500", "193705.302500", "193706.302500", "193707.302500", "193708.302500", "193709.302500", "193710.302500", "193711.302500", "193712.302500", "193713.302500", "193714.302500", "193715.302500", "193716.302500", "193717.302500", "193718.302500", "193719.302500", "193720.302500", "193721.302500", "193722.302500", "193723.302500", "193724.302500", "193725.302500", "193726.302500", "193727.302500", "193728.302500", "193729.302500", "193730.302500", "193731.302500", "193732.302500", "193733.302500", "193734.302500", "193735.302500", "193736.302500", "193737.302500", "193738.302500", "193739.302500", "193740.302500", "193741.302500", "193742.302500", "193743.302500", "193744.302500", "193745.302500", "193746.302500", "193747.302500", "193748.302500", "193749.302500", "193750.302500", "193751.302500", "193752.302500", "193753.302500", "193754.302500", "193755.302500", "193756.302500", "193757.302500", "193758.302500", "193759.302500", "193800.302500", "193801.302500", "193802.302500", "193803.302500", "193804.302500", "193805.302500", "193806.302500", "193807.302500", "193808.302500", "193809.302500", "193810.302500", "193811.302500", "193812.302500", "193813.302500", "193814.302500", "193815.302500", "193816.302500", "193817.302500", "193818.302500", "193819.302500", "193820.302500", "193821.302500", "193822.302500", "193823.302500", "193824.302500", "193825.302500", "193826.302500", "193827.302500", "193828.302500", "193829.302500", "193830.302500", "193831.302500", "193832.302500", "193833.302500", "193834.302500", "193835.302500", "193836.302500", "193837.302500", "193838.302500", "193839.302500", "193840.302500", "193841.302500", "193842.302500", "193843.302500", "193844.302500", "193845.302500", "193846.302500", "193847.302500", "193848.302500", "193849.302500", "193850.302500", "193851.302500", "193852.302500", "193853.302500", "193854.302500", "193855.302500", "193856.302500", "193857.302500", "193858.302500", "193859.302500", "193900.302500", "193901.302500", "193902.302500", "193903.302500", "193904.302500", "193905.302500", "193906.302500", "193907.302500", "193908.302500", "193909.302500", "193910.302500", "193911.302500", "193912.302500", "193913.302500", "193914.302500", "193915.302500", "193916.302500", "193917.302500", "193918.302500", "193919.302500", "193920.302500", "193921.302500", "193922.302500", "193923.302500", "193924.302500", "193925.302500", "193926.302500", "193927.302500", "193928.302500", "193929.302500", "193930.302500", "193931.302500", "193932.302500", "193933.302500", "193934.302500", "193935.302500", "193936.302500", "193937.302500", "193938.302500", "193939.302500", "193940.302500", "193941.302500", "193942.302500", "193943.302500", "193944.302500", "193945.302500", "193946.302500", "193947.302500", "193948.302500", "193949.302500", "193950.302500", "193951.302500", "193952.302500", "193953.302500", "193954.302500", "193955.302500", "193956.302500", "193957.302500", "193958.302500", "193959.302500", "194000.302500", "194001.302500", "194002.302500", "194003.302500", "194004.302500", "194005.302500", "194006.302500", "194007.302500", "194008.302500", "194009.302500", "194010.302500", "194011.302500", "194012.302500", "194013.302500", "194014.302500", "194015.302500", "194016.302500", "194017.302500", "194018.302500", "194019.302500", "194020.302500", "194021.302500", "194022.302500", "194023.302500", "194024.302500", "194025.302500", "194026.302500", "194027.302500", "194028.302500", "194029.302500", "194030.302500", "194031.302500", "194032.302500", "194033.302500", "194034.302500", "194035.302500", "194036.302500", "194037.302500", "194038.302500", "194039.302500", "194040.302500", "194041.302500", "194042.302500", "194043.302500", "194044.302500", "194045.302500", "194046.302500", "194047.302500", "194048.302500", "194049.302500", "194050.302500", "194051.302500", "194052.302500", "194053.302500", "194054.302500", "194055.302500", "194056.302500", "194057.302500", "194058.302500", "194059.302500", "194100.302500", "194101.302500", "194102.302500", "194103.302500", "194104.302500", "194105.302500", "194106.302500", "194107.302500", "194108.302500", "194109.302500", "194110.302500", "194111.302500", "194112.302500", "194113.302500", "194114.302500", "194115.302500", "194116.302500", "194117.302500", "194118.302500", "194119.302500", "194120.302500", "194121.302500", "194122.302500", "194123.302500", "194124.302500", "194125.302500", "194126.302500", "194127.302500", "194128.302500", "194129.302500", "194130.302500", "194131.302500", "194132.302500", "194133.302500", "194134.302500", "194135.302500"],
      "ContentTime": ["193649.648000", "193650.487000", "193651.481000", "193652.472000", "193653.510000", "193654.449000", "193655.471000", "193656.440000", "193657.448000", "193658.521000", "193659.487000", "193700.551000", "193701.453000", "193702.443000", "193703.418000", "193704.448000", "193705.438000", "193706.501000", "193707.537000", "193708.452000", "193709.430000", "193710.438000", "193711.481000", "193712.447000", "193713.459000", "193714.449000", "193715.475000", "193716.453000", "193717.459000", "193718.463000", "193719.474000", "193720.446000", "193721.427000", "193722.539000", "193723.458000", "193724.437000", "193725.451000", "193726.501000", "193727.469000", "193728.427000", "193729.476000", "193730.446000", "193731.440000", "193732.446000", "193733.471000", "193734.478000", "193735.465000", "193736.439000", "193737.466000", "193738.477000", "193739.512000", "193740.498000", "193741.501000", "193742.470000", "193743.525000", "193744.487000", "193745.470000", "193746.450000", "193747.451000", "193748.503000", "193749.487000", "193750.490000", "193751.501000", "193752.478000", "193753.488000", "193754.483000", "193755.468000", "193756.469000", "193757.471000", "193758.441000", "193759.466000", "193800.514000", "193801.451000", "193802.447000", "193803.450000", "193804.460000", "193805.449000", "193806.451000", "193807.470000", "193808.472000", "193809.465000", "193810.501000", "193811.493000", "193812.446000", "193813.443000", "193814.447000", "193815.422000", "193816.473000", "193817.454000", "193818.450000", "193819.459000", "193820.444000", "193821.456000", "193822.439000", "193823.449000", "193824.468000", "193825.476000", "193826.461000", "193827.435000", "193828.487000", "193829.511000", "193830.473000", "193831.452000", "193832.522000", "193833.458000", "193834.456000", "193835.471000", "193836.451000", "193837.452000", "193838.483000", "193839.451000", "193840.478000", "193841.472000", "193842.489000", "193843.492000", "193844.457000", "193845.482000", "193846.463000", "193847.510000", "193848.499000", "193849.462000", "193850.444000", "193851.454000", "193852.478000", "193853.462000", "193854.443000", "193855.460000", "193856.470000", "193857.464000", "193858.470000", "193859.458000", "193900.441000", "193901.466000", "193902.452000", "193903.477000", "193904.468000", "193905.444000", "193906.467000", "193907.464000", "193908.448000", "193909.446000", "193910.474000", "193911.483000", "193912.483000", "193913.479000", "193914.478000", "193915.467000", "193916.440000", "193917.445000", "193918.465000", "193919.486000", "193920.451000", "193921.453000", "193922.451000", "193923.464000", "193924.485000", "193925.490000", "193926.477000", "193927.496000", "193928.434000", "193929.437000", "193930.446000", "193931.469000", "193932.470000", "193933.473000", "193934.475000", "193935.468000", "193936.467000", "193937.505000", "193938.472000", "193939.474000", "193940.482000", "193941.447000", "193942.461000", "193943.472000", "193944.456000", "193945.452000", "193946.467000", "193947.475000", "193948.486000", "193949.484000", "193950.474000", "193951.453000", "193952.491000", "193953.462000", "193954.500000", "193955.446000", "193956.494000", "193957.488000", "193958.457000", "193959.473000", "194000.452000", "194001.503000", "194002.465000", "194003.472000", "194004.459000", "194005.474000", "194006.501000", "194007.586000", "194008.478000", "194009.469000", "194010.476000", "194011.452000", "194012.472000", "194013.493000", "194014.471000", "194015.503000", "194016.454000", "194017.484000", "194018.468000", "194019.457000", "194020.461000", "194021.466000", "194022.494000", "194023.450000", "194024.470000", "194025.457000", "194026.468000", "194027.455000", "194028.469000", "194029.492000", "194030.463000", "194031.443000", "194032.462000", "194033.441000", "194034.449000", "194035.468000", "194036.445000", "194037.460000", "194038.483000", "194039.511000", "194040.443000", "194041.508000", "194042.445000", "194043.460000", "194044.446000", "194045.451000", "194046.449000", "194047.449000", "194048.521000", "194049.491000", "194050.473000", "194051.508000", "194052.494000", "194053.485000", "194054.441000", "194055.476000", "194056.501000", "194057.495000", "194058.480000", "194059.450000", "194100.445000", "194101.437000", "194102.460000", "194103.474000", "194104.473000", "194105.462000", "194106.465000", "194107.466000", "194108.470000", "194109.494000", "194110.465000", "194111.463000", "194112.475000", "194113.524000", "194114.495000", "194115.458000", "194116.467000", "194117.486000", "194118.435000", "194119.456000", "194120.451000", "194121.460000", "194122.464000", "194123.474000", "194124.447000", "194125.448000", "194126.470000", "194127.470000", "194128.479000", "194129.459000", "194130.449000", "194131.453000", "194132.457000", "194133.477000", "194134.468000", "194135.528000", "194136.508000"],
      "InstanceCreationTime": ["193649.648000", "193650.487000", "193651.481000", "193652.472000", "193653.510000", "193654.449000", "193655.471000", "193656.440000", "193657.448000", "193658.521000", "193659.487000", "193700.551000", "193701.453000", "193702.443000", "193703.418000", "193704.448000", "193705.438000", "193706.501000", "193707.537000", "193708.452000", "193709.430000", "193710.438000", "193711.481000", "193712.447000", "193713.459000", "193714.449000", "193715.475000", "193716.453000", "193717.459000", "193718.463000", "193719.474000", "193720.446000", "193721.427000", "193722.539000", "193723.458000", "193724.437000", "193725.451000", "193726.501000", "193727.469000", "193728.427000", "193729.476000", "193730.446000", "193731.440000", "193732.446000", "193733.471000", "193734.478000", "193735.465000", "193736.439000", "193737.466000", "193738.477000", "193739.512000", "193740.498000", "193741.501000", "193742.470000", "193743.525000", "193744.487000", "193745.470000", "193746.450000", "193747.451000", "193748.503000", "193749.487000", "193750.490000", "193751.501000", "193752.478000", "193753.488000", "193754.483000", "193755.468000", "193756.469000", "193757.471000", "193758.441000", "193759.466000", "193800.514000", "193801.451000", "193802.447000", "193803.450000", "193804.460000", "193805.449000", "193806.451000", "193807.470000", "193808.472000", "193809.465000", "193810.501000", "193811.493000", "193812.446000", "193813.443000", "193814.447000", "193815.422000", "193816.473000", "193817.454000", "193818.450000", "193819.459000", "193820.444000", "193821.456000", "193822.439000", "193823.449000", "193824.468000", "193825.476000", "193826.461000", "193827.435000", "193828.487000", "193829.511000", "193830.473000", "193831.452000", "193832.522000", "193833.458000", "193834.456000", "193835.471000", "193836.451000", "193837.452000", "193838.483000", "193839.451000", "193840.478000", "193841.472000", "193842.489000", "193843.492000", "193844.457000", "193845.482000", "193846.463000", "193847.510000", "193848.499000", "193849.462000", "193850.444000", "193851.454000", "193852.478000", "193853.462000", "193854.443000", "193855.460000", "193856.470000", "193857.464000", "193858.470000", "193859.458000", "193900.441000", "193901.466000", "193902.452000", "193903.477000", "193904.468000", "193905.444000", "193906.467000", "193907.464000", "193908.448000", "193909.446000", "193910.474000", "193911.483000", "193912.483000", "193913.479000", "193914.478000", "193915.467000", "193916.440000", "193917.445000", "193918.465000", "193919.486000", "193920.451000", "193921.453000", "193922.451000", "193923.464000", "193924.485000", "193925.490000", "193926.477000", "193927.496000", "193928.434000", "193929.437000", "193930.446000", "193931.469000", "193932.470000", "193933.473000", "193934.475000", "193935.468000", "193936.467000", "193937.505000", "193938.472000", "193939.474000", "193940.482000", "193941.447000", "193942.461000", "193943.472000", "193944.456000", "193945.452000", "193946.467000", "193947.475000", "193948.486000", "193949.484000", "193950.474000", "193951.453000", "193952.491000", "193953.462000", "193954.500000", "193955.446000", "193956.494000", "193957.488000", "193958.457000", "193959.473000", "194000.452000", "194001.503000", "194002.465000", "194003.472000", "194004.459000", "194005.474000", "194006.501000", "194007.586000", "194008.478000", "194009.469000", "194010.476000", "194011.452000", "194012.472000", "194013.493000", "194014.471000", "194015.503000", "194016.454000", "194017.484000", "194018.468000", "194019.457000", "194020.461000", "194021.466000", "194022.494000", "194023.450000", "194024.470000", "194025.457000", "194026.468000", "194027.455000", "194028.469000", "194029.492000", "194030.463000", "194031.443000", "194032.462000", "194033.441000", "194034.449000", "194035.468000", "194036.445000", "194037.460000", "194038.483000", "194039.511000", "194040.443000", "194041.508000", "194042.445000", "194043.460000", "194044.446000", "194045.451000", "194046.449000", "194047.449000", "194048.521000", "194049.491000", "194050.473000", "194051.508000", "194052.494000", "194053.485000", "194054.441000", "194055.476000", "194056.501000", "194057.495000", "194058.480000", "194059.450000", "194100.445000", "194101.437000", "194102.460000", "194103.474000", "194104.473000", "194105.462000", "194106.465000", "194107.466000", "194108.470000", "194109.494000", "194110.465000", "194111.463000", "194112.475000", "194113.524000", "194114.495000", "194115.458000", "194116.467000", "194117.486000", "194118.435000", "194119.456000", "194120.451000", "194121.460000", "194122.464000", "194123.474000", "194124.447000", "194125.448000", "194126.470000", "194127.470000", "194128.479000", "194129.459000", "194130.449000", "194131.453000", "194132.457000", "194133.477000", "194134.468000", "194135.528000", "194136.508000"],
      "InstanceNumber": [1, 2, 3, 4, 5, 6, 7, 8, 9, 10, 11, 12, 13, 14, 15, 16, 17, 18, 19, 20, 21, 22, 23, 24, 25, 26, 27, 28, 29, 30, 31, 32, 33, 34, 35, 36, 37, 38, 39, 40, 41, 42, 43, 44, 45, 46, 47, 48, 49, 50, 51, 52, 53, 54, 55, 56, 57, 58, 59, 60, 61, 62, 63, 64, 65, 66, 67, 68, 69, 70, 71, 72, 73, 74, 75, 76, 77, 78, 79, 80, 81, 82, 83, 84, 85, 86, 87, 88, 89, 90, 91, 92, 93, 94, 95, 96, 97, 98, 99, 100, 101, 102, 103, 104, 105, 106, 107, 108, 109, 110, 111, 112, 113, 114, 115, 116, 117, 118, 119, 120, 121, 122, 123, 124, 125, 126, 127, 128, 129, 130, 131, 132, 133, 134, 135, 136, 137, 138, 139, 140, 141, 142, 143, 144, 145, 146, 147, 148, 149, 150, 151, 152, 153, 154, 155, 156, 157, 158, 159, 160, 161, 162, 163, 164, 165, 166, 167, 168, 169, 170, 171, 172, 173, 174, 175, 176, 177, 178, 179, 180, 181, 182, 183, 184, 185, 186, 187, 188, 189, 190, 191, 192, 193, 194, 195, 196, 197, 198, 199, 200, 201, 202, 203, 204, 205, 206, 207, 208, 209, 210, 211, 212, 213, 214, 215, 216, 217, 218, 219, 220, 221, 222, 223, 224, 225, 226, 227, 228, 229, 230, 231, 232, 233, 234, 235, 236, 237, 238, 239, 240, 241, 242, 243, 244, 245, 246, 247, 248, 249, 250, 251, 252, 253, 254, 255, 256, 257, 258, 259, 260, 261, 262, 263, 264, 265, 266, 267, 268, 269, 270, 271, 272, 273, 274, 275, 276, 277, 278, 279, 280, 281, 282, 283, 284, 285, 286, 287, 288],
      "LargestImagePixelValue": [819, 807, 843, 808, 768, 762, 747, 879, 1019, 965, 1013, 799, 898, 793, 777, 747, 741, 845, 1061, 985, 737, 731, 817, 904, 981, 758, 762, 836, 827, 784, 795, 1098, 776, 748, 743, 781, 1048, 781, 786, 734, 1114, 1623, 795, 676, 764, 875, 874, 923, 1240, 1221, 776, 769, 806, 815, 779, 761, 780, 756, 786, 738, 764, 744, 786, 1087, 848, 741, 736, 847, 1624, 1191, 942, 732, 747, 753, 752, 765, 831, 935, 726, 775, 951, 1592, 941, 809, 881, 779, 741, 732, 857, 929, 1127, 768, 702, 824, 1595, 1499, 918, 679, 841, 882, 719, 767, 767, 785, 803, 696, 960, 1381, 830, 783, 819, 842, 691, 672, 800, 883, 1157, 774, 689, 803, 884, 760, 792, 771, 758, 755, 768, 889, 1015, 740, 703, 837, 967, 1588, 1043, 895, 668, 852, 886, 788, 811, 816, 679, 734, 739, 780, 884, 803, 1308, 1474, 1035, 690, 869, 1240, 1611, 795, 701, 847, 877, 880, 1191, 1023, 814, 920, 846, 767, 767, 757, 805, 783, 817, 824, 807, 760, 887, 765, 786, 894, 699, 676, 710, 657, 867, 1297, 1465, 969, 788, 979, 1356, 943, 739, 747, 831, 841, 911, 693, 739, 769, 879, 1043, 885, 757, 701, 747, 780, 1116, 870, 661, 729, 855, 991, 1222, 929, 687, 806, 896, 946, 734, 788, 820, 992, 733, 778, 736, 737, 754, 1046, 1085, 892, 826, 1135, 1093, 730, 706, 695, 701, 782, 927, 798, 753, 783, 1102, 1409, 878, 677, 722, 865, 1013, 762, 802, 1065, 1396, 1223, 935, 1093, 1205, 1067, 814, 822, 727, 831, 974, 775, 690, 671, 862, 764, 790, 815, 814, 706, 851, 877, 753, 735, 758, 692, 740, 762, 896, 1011, 652, 724, 818, 880, 912, 761, 771],
      "WindowCenter": [361.0, 361.0, 361.0, 360.0, 360.0, 361.0, 361.0, 362.0, 363.0, 361.0, 362.0, 360.0, 362.0, 360.0, 360.0, 361.0, 361.0, 362.0, 363.0, 362.0, 360.0, 361.0, 361.0, 361.0, 361.0, 360.0, 361.0, 361.0, 361.0, 361.0, 360.0, 362.0, 360.0, 361.0, 361.0, 361.0, 363.0, 360.0, 360.0, 360.0, 363.0, 365.0, 360.0, 359.0, 361.0, 362.0, 361.0, 361.0, 363.0, 363.0, 360.0, 360.0, 360.0, 361.0, 360.0, 359.0, 360.0, 360.0, 360.0, 360.0, 361.0, 361.0, 361.0, 363.0, 360.0, 360.0, 360.0, 361.0, 365.0, 363.0, 362.0, 360.0, 361.0, 361.0, 361.0, 361.0, 362.0, 362.0, 360.0, 361.0, 362.0, 365.0, 362.0, 360.0, 361.0, 360.0, 360.0, 360.0, 362.0, 362.0, 363.0, 360.0, 359.0, 360.0, 365.0, 364.0, 361.0, 359.0, 360.0, 360.0, 359.0, 360.0, 360.0, 359.0, 360.0, 359.0, 361.0, 364.0, 360.0, 360.0, 360.0, 360.0, 358.0, 359.0, 361.0, 361.0, 362.0, 359.0, 359.0, 360.0, 361.0, 359.0, 361.0, 360.0, 360.0, 360.0, 361.0, 361.0, 362.0, 360.0, 359.0, 361.0, 362.0, 365.0, 361.0, 361.0, 359.0, 361.0, 361.0, 360.0, 360.0, 360.0, 358.0, 360.0, 361.0, 361.0, 362.0, 361.0, 364.0, 364.0, 361.0, 359.0, 361.0, 362.0, 364.0, 360.0, 360.0, 361.0, 361.0, 360.0, 362.0, 361.0, 359.0, 360.0, 359.0, 358.0, 358.0, 359.0, 359.0, 359.0, 360.0, 360.0, 359.0, 359.0, 360.0, 359.0, 359.0, 361.0, 358.0, 359.0, 360.0, 361.0, 362.0, 365.0, 364.0, 362.0, 360.0, 361.0, 363.0, 360.0, 359.0, 360.0, 361.0, 361.0, 360.0, 359.0, 360.0, 361.0, 361.0, 362.0, 361.0, 360.0, 360.0, 360.0, 360.0, 362.0, 361.0, 359.0, 360.0, 361.0, 362.0, 363.0, 361.0, 359.0, 361.0, 361.0, 361.0, 359.0, 359.0, 360.0, 361.0, 359.0, 361.0, 361.0, 361.0, 361.0, 363.0, 363.0, 361.0, 361.0, 362.0, 362.0, 359.0, 359.0, 360.0, 360.0, 360.0, 361.0, 360.0, 360.0, 361.0, 363.0, 363.0, 361.0, 359.0, 360.0, 361.0, 362.0, 360.0, 360.0, 362.0, 364.0, 363.0, 361.0, 363.0, 364.0, 362.0, 360.0, 359.0, 359.0, 359.0, 360.0, 359.0, 359.0, 359.0, 360.0, 359.0, 359.0, 360.0, 360.0, 359.0, 360.0, 360.0, 359.0, 359.0, 360.0, 360.0, 359.0, 360.0, 361.0, 362.0, 359.0, 361.0, 361.0, 361.0, 362.0, 360.0, 360.0],
      "WindowWidth": [774.0, 773.0, 773.0, 772.0, 771.0, 772.0, 774.0, 774.0, 775.0, 773.0, 774.0, 772.0, 773.0, 772.0, 772.0, 772.0, 773.0, 775.0, 776.0, 774.0, 772.0, 773.0, 773.0, 773.0, 773.0, 772.0, 772.0, 773.0, 773.0, 772.0, 772.0, 773.0, 771.0, 772.0, 774.0, 774.0, 776.0, 772.0, 772.0, 771.0, 775.0, 777.0, 771.0, 771.0, 772.0, 774.0, 773.0, 772.0, 774.0, 774.0, 770.0, 771.0, 772.0, 772.0, 771.0, 769.0, 770.0, 770.0, 771.0, 771.0, 773.0, 774.0, 773.0, 775.0, 772.0, 771.0, 771.0, 773.0, 777.0, 774.0, 773.0, 772.0, 772.0, 773.0, 773.0, 774.0, 774.0, 775.0, 771.0, 772.0, 774.0, 778.0, 774.0, 772.0, 772.0, 771.0, 771.0, 772.0, 774.0, 775.0, 775.0, 771.0, 770.0, 772.0, 777.0, 777.0, 772.0, 770.0, 771.0, 771.0, 770.0, 771.0, 771.0, 770.0, 772.0, 770.0, 773.0, 776.0, 770.0, 770.0, 770.0, 770.0, 769.0, 770.0, 772.0, 772.0, 774.0, 770.0, 770.0, 772.0, 772.0, 770.0, 772.0, 772.0, 771.0, 772.0, 772.0, 773.0, 774.0, 771.0, 770.0, 772.0, 773.0, 777.0, 772.0, 772.0, 770.0, 772.0, 772.0, 770.0, 771.0, 771.0, 769.0, 771.0, 773.0, 773.0, 774.0, 773.0, 776.0, 777.0, 772.0, 769.0, 772.0, 774.0, 776.0, 771.0, 771.0, 773.0, 772.0, 771.0, 772.0, 771.0, 768.0, 770.0, 769.0, 767.0, 767.0, 768.0, 770.0, 770.0, 771.0, 770.0, 770.0, 768.0, 771.0, 769.0, 770.0, 772.0, 768.0, 769.0, 772.0, 773.0, 775.0, 778.0, 777.0, 773.0, 771.0, 773.0, 774.0, 771.0, 769.0, 771.0, 772.0, 772.0, 771.0, 769.0, 771.0, 772.0, 773.0, 774.0, 772.0, 770.0, 771.0, 772.0, 772.0, 774.0, 772.0, 770.0, 771.0, 773.0, 774.0, 775.0, 772.0, 770.0, 773.0, 773.0, 772.0, 769.0, 770.0, 770.0, 772.0, 770.0, 773.0, 774.0, 774.0, 773.0, 775.0, 775.0, 773.0, 772.0, 774.0, 773.0, 769.0, 769.0, 771.0, 770.0, 771.0, 773.0, 772.0, 772.0, 772.0, 775.0, 775.0, 771.0, 769.0, 771.0, 772.0, 773.0, 770.0, 771.0, 775.0, 777.0, 775.0, 773.0, 776.0, 777.0, 774.0, 770.0, 770.0, 769.0, 769.0, 771.0, 769.0, 769.0, 770.0, 771.0, 770.0, 770.0, 771.0, 771.0, 769.0, 770.0, 770.0, 770.0, 770.0, 771.0, 771.0, 770.0, 772.0, 773.0, 774.0, 770.0, 772.0, 773.0, 773.0, 773.0, 771.0, 771.0]
    },
    "slices": {}
  }
}