{
  "AcquisitionMatrixPE": 96,
  "AcquisitionNumber": 1,
  "AcquisitionTime": "19:10:46.922500",
  "BandwidthPerPixelPhaseEncode": 18.939,
  "BaseResolution": 96,
  "BodyPartExamined": "BRAIN",
  "ConsistencyInfo": "N4_VE11C_LATEST_20160120",
  "ConversionSoftware": "dcm2niix",
  "ConversionSoftwareVersion": "v1.0.20170923 (OpenJPEG build) GCC6.3.0",
  "DerivedVendorReportedEchoSpacing": 0.000550011,
  "DeviceSerialNumber": "66112",
  "DwellTime": 2.2e-06,
  "EchoTime": 0.033,
  "EchoTrainLength": 96,
  "EffectiveEchoSpacing": 0.000550011,
  "FlipAngle": 59,
  "ImageType": [
    "ORIGINAL",
    "PRIMARY",
    "FMRI",
    "NONE",
    "ND",
    "NORM",
    "MOSAIC"
  ],
  "InstitutionAddress": "Maynard_3_Hanover_NH_US_03755",
  "InstitutionName": "Dartmouth_College_-_PBS",
  "MagneticFieldStrength": 3,
  "Manufacturer": "Siemens",
  "ManufacturersModelName": "Prisma",
  "Modality": "MR",
  "MultibandAccelerationFactor": 4,
  "PercentPhaseFOV": 100,
  "PhaseEncodingDirection": "j-",
  "PhaseEncodingSteps": 96,
  "PhaseResolution": 1,
  "ProcedureStepDescription": "Gobbini_Matteo_1038_hyperface",
  "ProtocolName": "func_run-01_task-localizer",
  "PulseSequenceDetails": "%SiemensSeq%_ep2d_bold",
  "ReceiveCoilActiveElements": "HEA;HEP",
  "ReceiveCoilName": "Head_32",
  "ReconMatrixPE": 96,
  "RepetitionTime": 1,
  "ScanOptions": "FS",
  "ScanningSequence": "EP",
  "SequenceName": "_epfid2d1_96",
  "SequenceVariant": "SK",
  "SeriesDescription": "func_run-01_task-localizer",
  "SliceTiming": [
    0.735,
    0,
    0.49,
    0.0825,
    0.5725,
    0.165,
    0.655,
    0.3275,
    0.8175,
    0.41,
    0.9,
    0.245,
    0.735,
    0,
    0.49,
    0.0825,
    0.5725,
    0.165,
    0.655,
    0.3275,
    0.8175,
    0.41,
    0.9,
    0.245,
    0.735,
    0,
    0.49,
    0.0825,
    0.5725,
    0.165,
    0.655,
    0.3275,
    0.8175,
    0.41,
    0.9,
    0.245,
    0.735,
    0,
    0.49,
    0.0825,
    0.5725,
    0.165,
    0.655,
    0.3275,
    0.8175,
    0.41,
    0.9,
    0.245
  ],
  "SoftwareVersions": "syngo_MR_E11",
  "StationName": "AWP66112",
  "TotalReadoutTime": 0.0522511,
  "dcmmeta_affine": [
    [
      -2.4942104816436768,
      -0.1700383722782135,
      0.0008187742787413299,
      128.72369384765625
    ],
    [
      -0.16999104619026184,
      2.493748426437378,
      0.04819004610180855,
      -98.08399200439453
    ],
    [
      0.004094389732927084,
      -0.04802277311682701,
      2.499535322189331,
      -56.58952713012695
    ],
    [
      0.0,
      0.0,
      0.0,
      1.0
    ]
  ],
  "dcmmeta_reorient_transform": [
    [
      0.0,
      -1.0,
      0.0,
      95.0
    ],
    [
      1.0,
      0.0,
      0.0,
      0.0
    ],
    [
      0.0,
      0.0,
      1.0,
      0.0
    ],
    [
      0.0,
      0.0,
      0.0,
      1.0
    ]
  ],
  "dcmmeta_shape": [
    96,
    96,
    48,
    236
  ],
  "dcmmeta_slice_dim": 2,
  "dcmmeta_version": 0.6,
  "global": {
    "const": {
      "AccessionNumber": "A001142",
      "AcquisitionMatrix": [
        96,
        0,
        0,
        96
      ],
      "AngioFlag": "N",
      "BitsAllocated": 16,
      "BitsStored": 12,
      "BodyPartExamined": "BRAIN",
      "Columns": 672,
      "EchoNumbers": 1,
      "EchoTime": 33.0,
      "EchoTrainLength": 96,
      "FlipAngle": 59.0,
      "HighBit": 11,
      "ImageOrientationPatient": [
        0.9976842210626,
        0.06799641754222,
        0.00163775582428,
        -0.0680153495919,
        0.99749933450194,
        0.01920910950781
      ],
      "ImagePositionPatient": [
        -781.93163220396,
        -905.97903814715,
        -76.161433254686
      ],
      "ImageType": [
        "ORIGINAL",
        "PRIMARY",
        "FMRI",
        "NONE",
        "ND",
        "NORM",
        "MOSAIC"
      ],
      "ImagedNucleus": "1H",
      "ImagingFrequency": 123.252305,
      "InPlanePhaseEncodingDirection": "COL",
      "MRAcquisitionType": "2D",
      "MagneticFieldStrength": 3.0,
      "Manufacturer": "SIEMENS",
      "ManufacturerModelName": "Prisma",
      "Modality": "MR",
      "NumberOfAverages": 1.0,
      "NumberOfPhaseEncodingSteps": 96,
      "PercentPhaseFieldOfView": 100.0,
      "PercentSampling": 100.0,
      "PerformedProcedureStepStartTime": "185927.297000",
      "PhotometricInterpretation": "MONOCHROME2",
      "PixelBandwidth": 2365.0,
      "PixelRepresentation": 0,
      "PixelSpacing": [
        2.5,
        2.5
      ],
      "PositionReferenceIndicator": "",
      "ProtocolName": "func_run-01_task-localizer",
      "RepetitionTime": 1000.0,
      "Rows": 672,
      "SAR": 0.05622223575446,
      "SamplesPerPixel": 1,
      "ScanOptions": "FS",
      "ScanningSequence": "EP",
      "SequenceName": "*epfid2d1_96",
      "SequenceVariant": "SK",
      "SeriesDescription": "func_run-01_task-localizer",
      "SeriesNumber": 7,
      "SeriesTime": "191048.596000",
      "SliceLocation": -58.427519953596,
      "SliceThickness": 2.5,
      "SmallestImagePixelValue": 0,
      "SoftwareVersions": "syngo MR E11",
      "SpacingBetweenSlices": 2.4999999705777,
      "SpecificCharacterSet": "ISO_IR 100",
      "StudyID": "3",
      "StudyTime": "185927.167000",
      "TransmitCoilName": "Body",
      "VariableFlipAngleFlag": "N",
      "WindowCenterWidthExplanation": "Algo1",
      "dBdt": 0.0
    },
    "slices": {}
  },
  "time": {
    "samples": {
      "AcquisitionNumber": [
        1,
        2,
        3,
        4,
        5,
        6,
        7,
        8,
        9,
        10,
        11,
        12,
        13,
        14,
        15,
        16,
        17,
        18,
        19,
        20,
        21,
        22,
        23,
        24,
        25,
        26,
        27,
        28,
        29,
        30,
        31,
        32,
        33,
        34,
        35,
        36,
        37,
        38,
        39,
        40,
        41,
        42,
        43,
        44,
        45,
        46,
        47,
        48,
        49,
        50,
        51,
        52,
        53,
        54,
        55,
        56,
        57,
        58,
        59,
        60,
        61,
        62,
        63,
        64,
        65,
        66,
        67,
        68,
        69,
        70,
        71,
        72,
        73,
        74,
        75,
        76,
        77,
        78,
        79,
        80,
        81,
        82,
        83,
        84,
        85,
        86,
        87,
        88,
        89,
        90,
        91,
        92,
        93,
        94,
        95,
        96,
        97,
        98,
        99,
        100,
        101,
        102,
        103,
        104,
        105,
        106,
        107,
        108,
        109,
        110,
        111,
        112,
        113,
        114,
        115,
        116,
        117,
        118,
        119,
        120,
        121,
        122,
        123,
        124,
        125,
        126,
        127,
        128,
        129,
        130,
        131,
        132,
        133,
        134,
        135,
        136,
        137,
        138,
        139,
        140,
        141,
        142,
        143,
        144,
        145,
        146,
        147,
        148,
        149,
        150,
        151,
        152,
        153,
        154,
        155,
        156,
        157,
        158,
        159,
        160,
        161,
        162,
        163,
        164,
        165,
        166,
        167,
        168,
        169,
        170,
        171,
        172,
        173,
        174,
        175,
        176,
        177,
        178,
        179,
        180,
        181,
        182,
        183,
        184,
        185,
        186,
        187,
        188,
        189,
        190,
        191,
        192,
        193,
        194,
        195,
        196,
        197,
        198,
        199,
        200,
        201,
        202,
        203,
        204,
        205,
        206,
        207,
        208,
        209,
        210,
        211,
        212,
        213,
        214,
        215,
        216,
        217,
        218,
        219,
        220,
        221,
        222,
        223,
        224,
        225,
        226,
        227,
        228,
        229,
        230,
        231,
        232,
        233,
        234,
        235,
        236
      ],
      "AcquisitionTime": [
        "191046.922500",
        "191047.922500",
        "191048.922500",
        "191049.922500",
        "191050.922500",
        "191051.922500",
        "191052.922500",
        "191053.922500",
        "191054.922500",
        "191055.922500",
        "191056.922500",
        "191057.922500",
        "191058.922500",
        "191059.922500",
        "191100.922500",
        "191101.922500",
        "191102.922500",
        "191103.922500",
        "191104.922500",
        "191105.922500",
        "191106.922500",
        "191107.922500",
        "191108.922500",
        "191109.922500",
        "191110.922500",
        "191111.922500",
        "191112.922500",
        "191113.922500",
        "191114.922500",
        "191115.922500",
        "191116.922500",
        "191117.922500",
        "191118.922500",
        "191119.922500",
        "191120.922500",
        "191121.922500",
        "191122.922500",
        "191123.922500",
        "191124.922500",
        "191125.922500",
        "191126.922500",
        "191127.922500",
        "191128.922500",
        "191129.922500",
        "191130.922500",
        "191131.922500",
        "191132.922500",
        "191133.922500",
        "191134.922500",
        "191135.922500",
        "191136.922500",
        "191137.922500",
        "191138.922500",
        "191139.922500",
        "191140.922500",
        "191141.922500",
        "191142.922500",
        "191143.922500",
        "191144.922500",
        "191145.922500",
        "191146.922500",
        "191147.922500",
        "191148.922500",
        "191149.922500",
        "191150.922500",
        "191151.922500",
        "191152.922500",
        "191153.922500",
        "191154.922500",
        "191155.922500",
        "191156.922500",
        "191157.922500",
        "191158.922500",
        "191159.922500",
        "191200.922500",
        "191201.922500",
        "191202.922500",
        "191203.922500",
        "191204.922500",
        "191205.922500",
        "191206.922500",
        "191207.922500",
        "191208.922500",
        "191209.922500",
        "191210.922500",
        "191211.922500",
        "191212.922500",
        "191213.922500",
        "191214.922500",
        "191215.922500",
        "191216.922500",
        "191217.922500",
        "191218.922500",
        "191219.922500",
        "191220.922500",
        "191221.922500",
        "191222.922500",
        "191223.922500",
        "191224.922500",
        "191225.922500",
        "191226.922500",
        "191227.922500",
        "191228.922500",
        "191229.922500",
        "191230.922500",
        "191231.922500",
        "191232.922500",
        "191233.922500",
        "191234.922500",
        "191235.922500",
        "191236.922500",
        "191237.922500",
        "191238.922500",
        "191239.922500",
        "191240.922500",
        "191241.922500",
        "191242.922500",
        "191243.922500",
        "191244.922500",
        "191245.922500",
        "191246.922500",
        "191247.922500",
        "191248.922500",
        "191249.922500",
        "191250.922500",
        "191251.922500",
        "191252.922500",
        "191253.922500",
        "191254.922500",
        "191255.922500",
        "191256.922500",
        "191257.922500",
        "191258.922500",
        "191259.922500",
        "191300.922500",
        "191301.922500",
        "191302.922500",
        "191303.922500",
        "191304.922500",
        "191305.922500",
        "191306.922500",
        "191307.922500",
        "191308.922500",
        "191309.922500",
        "191310.922500",
        "191311.922500",
        "191312.922500",
        "191313.922500",
        "191314.922500",
        "191315.922500",
        "191316.922500",
        "191317.922500",
        "191318.922500",
        "191319.922500",
        "191320.922500",
        "191321.922500",
        "191322.922500",
        "191323.922500",
        "191324.922500",
        "191325.922500",
        "191326.922500",
        "191327.922500",
        "191328.922500",
        "191329.922500",
        "191330.922500",
        "191331.922500",
        "191332.922500",
        "191333.922500",
        "191334.922500",
        "191335.922500",
        "191336.922500",
        "191337.922500",
        "191338.922500",
        "191339.922500",
        "191340.922500",
        "191341.922500",
        "191342.922500",
        "191343.922500",
        "191344.922500",
        "191345.922500",
        "191346.922500",
        "191347.922500",
        "191348.922500",
        "191349.922500",
        "191350.922500",
        "191351.922500",
        "191352.922500",
        "191353.922500",
        "191354.922500",
        "191355.922500",
        "191356.922500",
        "191357.922500",
        "191358.922500",
        "191359.922500",
        "191400.922500",
        "191401.922500",
        "191402.922500",
        "191403.922500",
        "191404.922500",
        "191405.922500",
        "191406.922500",
        "191407.922500",
        "191408.922500",
        "191409.922500",
        "191410.922500",
        "191411.922500",
        "191412.922500",
        "191413.922500",
        "191414.922500",
        "191415.922500",
        "191416.922500",
        "191417.922500",
        "191418.922500",
        "191419.922500",
        "191420.922500",
        "191421.922500",
        "191422.922500",
        "191423.922500",
        "191424.922500",
        "191425.922500",
        "191426.922500",
        "191427.922500",
        "191428.922500",
        "191429.922500",
        "191430.922500",
        "191431.922500",
        "191432.922500",
        "191433.922500",
        "191434.922500",
        "191435.922500",
        "191436.922500",
        "191437.922500",
        "191438.922500",
        "191439.922500",
        "191440.922500",
        "191441.922500"
      ],
      "ContentTime": [
        "191048.600000",
        "191049.466000",
        "191050.445000",
        "191051.461000",
        "191052.529000",
        "191053.427000",
        "191054.417000",
        "191055.401000",
        "191056.432000",
        "191057.433000",
        "191058.406000",
        "191059.402000",
        "191100.428000",
        "191101.421000",
        "191102.439000",
        "191103.412000",
        "191104.451000",
        "191105.383000",
        "191106.403000",
        "191107.428000",
        "191108.398000",
        "191109.445000",
        "191110.379000",
        "191111.418000",
        "191112.418000",
        "191113.398000",
        "191114.402000",
        "191115.397000",
        "191116.400000",
        "191117.404000",
        "191118.393000",
        "191119.397000",
        "191120.408000",
        "191121.414000",
        "191122.398000",
        "191123.378000",
        "191124.378000",
        "191125.377000",
        "191126.392000",
        "191127.418000",
        "191128.398000",
        "191129.443000",
        "191130.445000",
        "191131.397000",
        "191132.402000",
        "191133.389000",
        "191134.388000",
        "191135.417000",
        "191136.391000",
        "191137.375000",
        "191138.438000",
        "191139.395000",
        "191140.425000",
        "191141.389000",
        "191142.411000",
        "191143.372000",
        "191144.402000",
        "191145.397000",
        "191146.424000",
        "191147.391000",
        "191148.453000",
        "191149.427000",
        "191150.383000",
        "191151.411000",
        "191152.411000",
        "191153.403000",
        "191154.405000",
        "191155.435000",
        "191156.393000",
        "191157.404000",
        "191158.415000",
        "191159.374000",
        "191200.394000",
        "191201.425000",
        "191202.447000",
        "191203.399000",
        "191204.397000",
        "191205.454000",
        "191206.433000",
        "191207.440000",
        "191208.380000",
        "191209.389000",
        "191210.419000",
        "191211.386000",
        "191212.396000",
        "191213.388000",
        "191214.419000",
        "191215.372000",
        "191216.420000",
        "191217.383000",
        "191218.416000",
        "191219.377000",
        "191220.395000",
        "191221.409000",
        "191222.430000",
        "191223.406000",
        "191224.406000",
        "191225.390000",
        "191226.387000",
        "191227.413000",
        "191228.411000",
        "191229.411000",
        "191230.431000",
        "191231.488000",
        "191232.397000",
        "191233.420000",
        "191234.429000",
        "191235.424000",
        "191236.426000",
        "191237.404000",
        "191238.407000",
        "191239.447000",
        "191240.444000",
        "191241.411000",
        "191242.417000",
        "191243.411000",
        "191244.396000",
        "191245.410000",
        "191246.398000",
        "191247.439000",
        "191248.406000",
        "191249.416000",
        "191250.398000",
        "191251.419000",
        "191252.415000",
        "191253.429000",
        "191254.435000",
        "191255.389000",
        "191256.392000",
        "191257.428000",
        "191258.421000",
        "191259.397000",
        "191300.384000",
        "191301.417000",
        "191302.427000",
        "191303.411000",
        "191304.410000",
        "191305.405000",
        "191306.406000",
        "191307.411000",
        "191308.390000",
        "191309.388000",
        "191310.395000",
        "191311.402000",
        "191312.400000",
        "191313.404000",
        "191314.366000",
        "191315.393000",
        "191316.411000",
        "191317.384000",
        "191318.405000",
        "191319.396000",
        "191320.439000",
        "191321.412000",
        "191322.410000",
        "191323.385000",
        "191324.405000",
        "191325.413000",
        "191326.441000",
        "191327.396000",
        "191328.411000",
        "191329.424000",
        "191330.400000",
        "191331.434000",
        "191332.438000",
        "191333.435000",
        "191334.419000",
        "191335.413000",
        "191336.388000",
        "191337.415000",
        "191338.458000",
        "191339.480000",
        "191340.403000",
        "191341.408000",
        "191342.404000",
        "191343.408000",
        "191344.421000",
        "191345.439000",
        "191346.392000",
        "191347.434000",
        "191348.406000",
        "191349.403000",
        "191350.415000",
        "191351.401000",
        "191352.392000",
        "191353.422000",
        "191354.401000",
        "191355.389000",
        "191356.387000",
        "191357.395000",
        "191358.424000",
        "191359.401000",
        "191400.405000",
        "191401.392000",
        "191402.413000",
        "191403.408000",
        "191404.408000",
        "191405.452000",
        "191406.415000",
        "191407.396000",
        "191408.424000",
        "191409.405000",
        "191410.379000",
        "191411.400000",
        "191412.413000",
        "191413.376000",
        "191414.388000",
        "191415.381000",
        "191416.391000",
        "191417.388000",
        "191418.436000",
        "191419.398000",
        "191420.408000",
        "191421.424000",
        "191422.417000",
        "191423.404000",
        "191424.403000",
        "191425.396000",
        "191426.417000",
        "191427.382000",
        "191428.381000",
        "191429.361000",
        "191430.406000",
        "191431.401000",
        "191432.385000",
        "191433.380000",
        "191434.361000",
        "191435.412000",
        "191436.398000",
        "191437.380000",
        "191438.425000",
        "191439.389000",
        "191440.396000",
        "191441.398000",
        "191442.449000",
        "191443.436000"
      ],
      "InstanceCreationTime": [
        "191048.600000",
        "191049.466000",
        "191050.445000",
        "191051.461000",
        "191052.529000",
        "191053.427000",
        "191054.417000",
        "191055.401000",
        "191056.432000",
        "191057.433000",
        "191058.406000",
        "191059.402000",
        "191100.428000",
        "191101.421000",
        "191102.439000",
        "191103.412000",
        "191104.451000",
        "191105.383000",
        "191106.403000",
        "191107.428000",
        "191108.398000",
        "191109.445000",
        "191110.379000",
        "191111.418000",
        "191112.418000",
        "191113.398000",
        "191114.402000",
        "191115.397000",
        "191116.400000",
        "191117.404000",
        "191118.393000",
        "191119.397000",
        "191120.408000",
        "191121.414000",
        "191122.398000",
        "191123.378000",
        "191124.378000",
        "191125.377000",
        "191126.392000",
        "191127.418000",
        "191128.398000",
        "191129.443000",
        "191130.445000",
        "191131.397000",
        "191132.402000",
        "191133.389000",
        "191134.388000",
        "191135.417000",
        "191136.391000",
        "191137.375000",
        "191138.438000",
        "191139.395000",
        "191140.425000",
        "191141.389000",
        "191142.411000",
        "191143.372000",
        "191144.402000",
        "191145.397000",
        "191146.424000",
        "191147.391000",
        "191148.453000",
        "191149.427000",
        "191150.383000",
        "191151.411000",
        "191152.411000",
        "191153.403000",
        "191154.405000",
        "191155.435000",
        "191156.393000",
        "191157.404000",
        "191158.415000",
        "191159.374000",
        "191200.394000",
        "191201.425000",
        "191202.447000",
        "191203.399000",
        "191204.397000",
        "191205.454000",
        "191206.433000",
        "191207.440000",
        "191208.380000",
        "191209.389000",
        "191210.419000",
        "191211.386000",
        "191212.396000",
        "191213.388000",
        "191214.419000",
        "191215.372000",
        "191216.420000",
        "191217.383000",
        "191218.416000",
        "191219.377000",
        "191220.395000",
        "191221.409000",
        "191222.430000",
        "191223.406000",
        "191224.406000",
        "191225.390000",
        "191226.387000",
        "191227.413000",
        "191228.411000",
        "191229.411000",
        "191230.431000",
        "191231.488000",
        "191232.397000",
        "191233.420000",
        "191234.429000",
        "191235.424000",
        "191236.426000",
        "191237.404000",
        "191238.407000",
        "191239.447000",
        "191240.444000",
        "191241.411000",
        "191242.417000",
        "191243.411000",
        "191244.396000",
        "191245.410000",
        "191246.398000",
        "191247.439000",
        "191248.406000",
        "191249.416000",
        "191250.398000",
        "191251.419000",
        "191252.415000",
        "191253.429000",
        "191254.435000",
        "191255.389000",
        "191256.392000",
        "191257.428000",
        "191258.421000",
        "191259.397000",
        "191300.384000",
        "191301.417000",
        "191302.427000",
        "191303.411000",
        "191304.410000",
        "191305.405000",
        "191306.406000",
        "191307.411000",
        "191308.390000",
        "191309.388000",
        "191310.395000",
        "191311.402000",
        "191312.400000",
        "191313.404000",
        "191314.366000",
        "191315.393000",
        "191316.411000",
        "191317.384000",
        "191318.405000",
        "191319.396000",
        "191320.439000",
        "191321.412000",
        "191322.410000",
        "191323.385000",
        "191324.405000",
        "191325.413000",
        "191326.441000",
        "191327.396000",
        "191328.411000",
        "191329.424000",
        "191330.400000",
        "191331.434000",
        "191332.438000",
        "191333.435000",
        "191334.419000",
        "191335.413000",
        "191336.388000",
        "191337.415000",
        "191338.458000",
        "191339.480000",
        "191340.403000",
        "191341.408000",
        "191342.404000",
        "191343.408000",
        "191344.421000",
        "191345.439000",
        "191346.392000",
        "191347.434000",
        "191348.406000",
        "191349.403000",
        "191350.415000",
        "191351.401000",
        "191352.392000",
        "191353.422000",
        "191354.401000",
        "191355.389000",
        "191356.387000",
        "191357.395000",
        "191358.424000",
        "191359.401000",
        "191400.405000",
        "191401.392000",
        "191402.413000",
        "191403.408000",
        "191404.408000",
        "191405.452000",
        "191406.415000",
        "191407.396000",
        "191408.424000",
        "191409.405000",
        "191410.379000",
        "191411.400000",
        "191412.413000",
        "191413.376000",
        "191414.388000",
        "191415.381000",
        "191416.391000",
        "191417.388000",
        "191418.436000",
        "191419.398000",
        "191420.408000",
        "191421.424000",
        "191422.417000",
        "191423.404000",
        "191424.403000",
        "191425.396000",
        "191426.417000",
        "191427.382000",
        "191428.381000",
        "191429.361000",
        "191430.406000",
        "191431.401000",
        "191432.385000",
        "191433.380000",
        "191434.361000",
        "191435.412000",
        "191436.398000",
        "191437.380000",
        "191438.425000",
        "191439.389000",
        "191440.396000",
        "191441.398000",
        "191442.449000",
        "191443.436000"
      ],
      "InstanceNumber": [
        1,
        2,
        3,
        4,
        5,
        6,
        7,
        8,
        9,
        10,
        11,
        12,
        13,
        14,
        15,
        16,
        17,
        18,
        19,
        20,
        21,
        22,
        23,
        24,
        25,
        26,
        27,
        28,
        29,
        30,
        31,
        32,
        33,
        34,
        35,
        36,
        37,
        38,
        39,
        40,
        41,
        42,
        43,
        44,
        45,
        46,
        47,
        48,
        49,
        50,
        51,
        52,
        53,
        54,
        55,
        56,
        57,
        58,
        59,
        60,
        61,
        62,
        63,
        64,
        65,
        66,
        67,
        68,
        69,
        70,
        71,
        72,
        73,
        74,
        75,
        76,
        77,
        78,
        79,
        80,
        81,
        82,
        83,
        84,
        85,
        86,
        87,
        88,
        89,
        90,
        91,
        92,
        93,
        94,
        95,
        96,
        97,
        98,
        99,
        100,
        101,
        102,
        103,
        104,
        105,
        106,
        107,
        108,
        109,
        110,
        111,
        112,
        113,
        114,
        115,
        116,
        117,
        118,
        119,
        120,
        121,
        122,
        123,
        124,
        125,
        126,
        127,
        128,
        129,
        130,
        131,
        132,
        133,
        134,
        135,
        136,
        137,
        138,
        139,
        140,
        141,
        142,
        143,
        144,
        145,
        146,
        147,
        148,
        149,
        150,
        151,
        152,
        153,
        154,
        155,
        156,
        157,
        158,
        159,
        160,
        161,
        162,
        163,
        164,
        165,
        166,
        167,
        168,
        169,
        170,
        171,
        172,
        173,
        174,
        175,
        176,
        177,
        178,
        179,
        180,
        181,
        182,
        183,
        184,
        185,
        186,
        187,
        188,
        189,
        190,
        191,
        192,
        193,
        194,
        195,
        196,
        197,
        198,
        199,
        200,
        201,
        202,
        203,
        204,
        205,
        206,
        207,
        208,
        209,
        210,
        211,
        212,
        213,
        214,
        215,
        216,
        217,
        218,
        219,
        220,
        221,
        222,
        223,
        224,
        225,
        226,
        227,
        228,
        229,
        230,
        231,
        232,
        233,
        234,
        235,
        236
      ],
      "LargestImagePixelValue": [
        1721,
        1674,
        893,
        679,
        751,
        756,
        758,
        779,
        921,
        812,
        734,
        790,
        790,
        764,
        1173,
        812,
        675,
        783,
        913,
        741,
        771,
        768,
        1018,
        797,
        763,
        785,
        816,
        1041,
        764,
        737,
        854,
        1022,
        770,
        787,
        752,
        957,
        921,
        703,
        769,
        812,
        987,
        1189,
        759,
        760,
        761,
        950,
        1039,
        779,
        732,
        865,
        1623,
        968,
        697,
        755,
        763,
        786,
        784,
        817,
