{
  "AcquisitionMatrixPE": 96,
  "AcquisitionNumber": 1,
  "AcquisitionTime": "19:32:0.562500",
  "BandwidthPerPixelPhaseEncode": 18.939,
  "BaseResolution": 96,
  "BodyPartExamined": "BRAIN",
  "ConsistencyInfo": "N4_VE11C_LATEST_20160120",
  "ConversionSoftware": "dcm2niix",
  "ConversionSoftwareVersion": "v1.0.20170923 (OpenJPEG build) GCC6.3.0",
  "DerivedVendorReportedEchoSpacing": 0.000550011,
  "DeviceSerialNumber": "66112",
  "DwellTime": 2.2e-06,
  "EchoTime": 0.033,
  "EchoTrainLength": 96,
  "EffectiveEchoSpacing": 0.000550011,
  "FlipAngle": 59,
  "ImageType": [
    "ORIGINAL",
    "PRIMARY",
    "FMRI",
    "NONE",
    "ND",
    "NORM",
    "MOSAIC"
],
  "InstitutionAddress": "Maynard_3_Hanover_NH_US_03755",
  "InstitutionName": "Dartmouth_College_-_PBS",
  "MagneticFieldStrength": 3,
  "Manufacturer": "Siemens",
  "ManufacturersModelName": "Prisma",
  "Modality": "MR",
  "MultibandAccelerationFactor": 4,
  "PartialFourier": 1,
  "PercentPhaseFOV": 100,
  "PhaseEncodingDirection": "j-",
  "PhaseEncodingSteps": 96,
  "PhaseResolution": 1,
  "ProcedureStepDescription": "Gobbini_Matteo_1038_hyperface",
  "ProtocolName": "func_run-05_task-localizer",
  "PulseSequenceDetails": "%SiemensSeq%_ep2d_bold",
  "ReceiveCoilActiveElements": "HEA;HEP",
  "ReceiveCoilName": "Head_32",
  "ReconMatrixPE": 96,
  "RepetitionTime": 1,
  "ScanOptions": "FS",
  "ScanningSequence": "EP",
  "SequenceName": "_epfid2d1_96",
  "SequenceVariant": "SK",
  "SeriesDescription": "func_run-05_task-localizer",
  "SliceTiming": [0.735, 0, 0.49, 0.0825, 0.5725, 0.1625, 0.6525, 0.3275, 0.8175, 0.4075, 0.8975, 0.245, 0.735, 0, 0.49, 0.0825, 0.5725, 0.1625, 0.6525, 0.3275, 0.8175, 0.4075, 0.8975, 0.245, 0.735, 0, 0.49, 0.0825, 0.5725, 0.1625, 0.6525, 0.3275, 0.8175, 0.4075, 0.8975, 0.245, 0.735, 0, 0.49, 0.0825, 0.5725, 0.1625, 0.6525, 0.3275, 0.8175, 0.4075, 0.8975, 0.245],
  "SoftwareVersions": "syngo_MR_E11",
  "StationName": "AWP66112",
  "TotalReadoutTime": 0.0522511,
  "dcmmeta_affine": [
    [-2.4942104816436768, -0.1700383722782135, 0.0008187742787413299, 128.72369384765625],
    [-0.16999104619026184, 2.493748426437378, 0.04819004610180855, -98.08399200439453],
    [0.004094389732927084, -0.04802277311682701, 2.499535322189331, -56.58952713012695],
    [0.0, 0.0, 0.0, 1.0]
],
  "dcmmeta_reorient_transform": [
    [0.0, -1.0, 0.0, 95.0],
    [1.0, 0.0, 0.0, 0.0],
    [0.0, 0.0, 1.0, 0.0],
    [0.0, 0.0, 0.0, 1.0]
],
  "dcmmeta_shape": [96, 96, 48, 236],
  "dcmmeta_slice_dim": 2,
  "dcmmeta_version": 0.6,
  "global": {
    "const": {
      "AccessionNumber": "A001142",
      "AcquisitionMatrix": [96, 0, 0, 96],
      "AngioFlag": "N",
      "BitsAllocated": 16,
      "BitsStored": 12,
      "BodyPartExamined": "BRAIN",
      "Columns": 672,
      "EchoNumbers": 1,
      "EchoTime": 33.0,
      "EchoTrainLength": 96,
      "FlipAngle": 59.0,
      "HighBit": 11,
      "ImageOrientationPatient": [0.9976842210626, 0.06799641754222, 0.00163775582428, -0.0680153495919, 0.99749933450194, 0.01920910950781],
      "ImagePositionPatient": [-781.93163220396, -905.97903814715, -76.161433254686],
      "ImageType": [
        "ORIGINAL",
        "PRIMARY",
        "FMRI",
        "NONE",
        "ND",
        "NORM",
        "MOSAIC"
],
      "ImagedNucleus": "1H",
      "ImagingFrequency": 123.252311,
      "InPlanePhaseEncodingDirection": "COL",
      "MRAcquisitionType": "2D",
      "MagneticFieldStrength": 3.0,
      "Manufacturer": "SIEMENS",
      "ManufacturerModelName": "Prisma",
      "Modality": "MR",
      "NumberOfAverages": 1.0,
      "NumberOfPhaseEncodingSteps": 96,
      "PercentPhaseFieldOfView": 100.0,
      "PercentSampling": 100.0,
      "PerformedProcedureStepStartTime": "185927.297000",
      "PhotometricInterpretation": "MONOCHROME2",
      "PixelBandwidth": 2365.0,
      "PixelRepresentation": 0,
      "PixelSpacing": [2.5, 2.5],
      "PositionReferenceIndicator": "",
      "ProtocolName": "func_run-05_task-localizer",
      "RepetitionTime": 1000.0,
      "Rows": 672,
      "SAR": 0.05622223575446,
      "SamplesPerPixel": 1,
      "ScanOptions": "FS",
      "ScanningSequence": "EP",
      "SequenceName": "*epfid2d1_96",
      "SequenceVariant": "SK",
      "SeriesDescription": "func_run-05_task-localizer",
      "SeriesNumber": 35,
      "SeriesTime": "193201.963000",
      "SliceLocation": -58.427519953596,
      "SliceThickness": 2.5,
      "SmallestImagePixelValue": 0,
      "SoftwareVersions": "syngo MR E11",
      "SpacingBetweenSlices": 2.4999999705777,
      "SpecificCharacterSet": "ISO_IR 100",
      "StudyID": "3",
      "StudyTime": "185927.167000",
      "TransmitCoilName": "Body",
      "VariableFlipAngleFlag": "N",
      "WindowCenterWidthExplanation": "Algo1",
      "dBdt": 0.0},
    "slices": {}
  },
  "time": {
    "samples": {
      "AcquisitionNumber": [1, 2, 3, 4, 5, 6, 7, 8, 9, 10, 11, 12, 13, 14, 15, 16, 17, 18, 19, 20, 21, 22, 23, 24, 25, 26, 27, 28, 29, 30, 31, 32, 33, 34, 35, 36, 37, 38, 39, 40, 41, 42, 43, 44, 45, 46, 47, 48, 49, 50, 51, 52, 53, 54, 55, 56, 57, 58, 59, 60, 61, 62, 63, 64, 65, 66, 67, 68, 69, 70, 71, 72, 73, 74, 75, 76, 77, 78, 79, 80, 81, 82, 83, 84, 85, 86, 87, 88, 89, 90, 91, 92, 93, 94, 95, 96, 97, 98, 99, 100, 101, 102, 103, 104, 105, 106, 107, 108, 109, 110, 111, 112, 113, 114, 115, 116, 117, 118, 119, 120, 121, 122, 123, 124, 125, 126, 127, 128, 129, 130, 131, 132, 133, 134, 135, 136, 137, 138, 139, 140, 141, 142, 143, 144, 145, 146, 147, 148, 149, 150, 151, 152, 153, 154, 155, 156, 157, 158, 159, 160, 161, 162, 163, 164, 165, 166, 167, 168, 169, 170, 171, 172, 173, 174, 175, 176, 177, 178, 179, 180, 181, 182, 183, 184, 185, 186, 187, 188, 189, 190, 191, 192, 193, 194, 195, 196, 197, 198, 199, 200, 201, 202, 203, 204, 205, 206, 207, 208, 209, 210, 211, 212, 213, 214, 215, 216, 217, 218, 219, 220, 221, 222, 223, 224, 225, 226, 227, 228, 229, 230, 231, 232, 233, 234, 235, 236],
      "AcquisitionTime": ["193200.562500", "193201.562500", "193202.562500", "193203.562500", "193204.562500", "193205.562500", "193206.562500", "193207.562500", "193208.562500", "193209.562500", "193210.562500", "193211.562500", "193212.562500", "193213.562500", "193214.562500", "193215.562500", "193216.562500", "193217.562500", "193218.562500", "193219.562500", "193220.562500", "193221.562500", "193222.562500", "193223.562500", "193224.562500", "193225.562500", "193226.562500", "193227.562500", "193228.562500", "193229.562500", "193230.562500", "193231.562500", "193232.562500", "193233.562500", "193234.562500", "193235.562500", "193236.562500", "193237.562500", "193238.562500", "193239.562500", "193240.562500", "193241.562500", "193242.562500", "193243.562500", "193244.562500", "193245.562500", "193246.562500", "193247.562500", "193248.562500", "193249.562500", "193250.562500", "193251.562500", "193252.562500", "193253.562500", "193254.562500", "193255.562500", "193256.562500", "193257.562500", "193258.562500", "193259.562500", "193300.562500", "193301.562500", "193302.562500", "193303.562500", "193304.562500", "193305.562500", "193306.562500", "193307.562500", "193308.562500", "193309.562500", "193310.562500", "193311.562500", "193312.562500", "193313.562500", "193314.562500", "193315.562500", "193316.562500", "193317.562500", "193318.562500", "193319.562500", "193320.562500", "193321.562500", "193322.562500", "193323.562500", "193324.562500", "193325.562500", "193326.562500", "193327.562500", "193328.562500", "193329.562500", "193330.562500", "193331.562500", "193332.562500", "193333.562500", "193334.562500", "193335.562500", "193336.562500", "193337.562500", "193338.562500", "193339.562500", "193340.562500", "193341.562500", "193342.562500", "193343.562500", "193344.562500", "193345.562500", "193346.562500", "193347.562500", "193348.562500", "193349.562500", "193350.562500", "193351.562500", "193352.562500", "193353.562500", "193354.562500", "193355.562500", "193356.562500", "193357.562500", "193358.562500", "193359.562500", "193400.562500", "193401.562500", "193402.562500", "193403.562500", "193404.562500", "193405.562500", "193406.562500", "193407.562500", "193408.562500", "193409.562500", "193410.562500", "193411.562500", "193412.562500", "193413.562500", "193414.562500", "193415.562500", "193416.562500", "193417.562500", "193418.562500", "193419.562500", "193420.562500", "193421.562500", "193422.562500", "193423.562500", "193424.562500", "193425.562500", "193426.562500", "193427.562500", "193428.562500", "193429.562500", "193430.562500", "193431.562500", "193432.562500", "193433.562500", "193434.562500", "193435.562500", "193436.562500", "193437.562500", "193438.562500", "193439.562500", "193440.562500", "193441.562500", "193442.562500", "193443.562500", "193444.562500", "193445.562500", "193446.562500", "193447.562500", "193448.562500", "193449.562500", "193450.562500", "193451.562500", "193452.562500", "193453.562500", "193454.562500", "193455.562500", "193456.562500", "193457.562500", "193458.562500", "193459.562500", "193500.562500", "193501.562500", "193502.562500", "193503.562500", "193504.562500", "193505.562500", "193506.562500", "193507.562500", "193508.562500", "193509.562500", "193510.562500", "193511.562500", "193512.562500", "193513.562500", "193514.562500", "193515.562500", "193516.562500", "193517.562500", "193518.562500", "193519.562500", "193520.562500", "193521.562500", "193522.562500", "193523.562500", "193524.562500", "193525.562500", "193526.562500", "193527.562500", "193528.562500", "193529.562500", "193530.562500", "193531.562500", "193532.562500", "193533.562500", "193534.562500", "193535.562500", "193536.562500", "193537.562500", "193538.562500", "193539.562500", "193540.562500", "193541.562500", "193542.562500", "193543.562500", "193544.562500", "193545.562500", "193546.562500", "193547.562500", "193548.562500", "193549.562500", "193550.562500", "193551.562500", "193552.562500", "193553.562500", "193554.562500", "193555.562500"],
      "ContentTime": ["193201.966000", "193202.821000", "193203.803000", "193204.783000", "193205.777000", "193206.778000", "193207.771000", "193208.784000", "193209.771000", "193210.790000", "193211.783000", "193212.778000", "193213.771000", "193214.767000", "193215.786000", "193216.777000", "193217.760000", "193218.762000", "193219.784000", "193220.750000", "193221.759000", "193222.777000", "193223.782000", "193224.749000", "193225.781000", "193226.777000", "193227.760000", "193228.750000", "193229.791000", "193230.777000", "193231.753000", "193232.765000", "193233.784000", "193234.762000", "193235.776000", "193236.783000", "193237.775000", "193238.771000", "193239.766000", "193240.754000", "193241.803000", "193242.789000", "193243.762000", "193244.768000", "193245.762000", "193246.770000", "193247.775000", "193248.779000", "193249.793000", "193250.768000", "193251.794000", "193252.756000", "193253.778000", "193254.792000", "193255.775000", "193256.822000", "193257.767000", "193258.774000", "193259.768000", "193300.789000", "193301.762000", "193302.759000", "193303.834000", "193304.778000", "193305.770000", "193306.800000", "193307.784000", "193308.784000", "193309.815000", "193310.753000", "193311.768000", "193312.759000", "193313.764000", "193314.778000", "193315.784000", "193316.761000", "193317.775000", "193318.810000", "193319.761000", "193320.808000", "193321.823000", "193322.785000", "193323.756000", "193324.791000", "193325.761000", "193326.815000", "193327.809000", "193328.759000", "193329.847000", "193330.808000", "193331.781000", "193332.766000", "193333.732000", "193334.786000", "193335.775000", "193336.755000", "193337.782000", "193338.807000", "193339.820000", "193340.778000", "193341.805000", "193342.823000", "193343.779000", "193344.806000", "193345.771000", "193346.778000", "193347.779000", "193348.756000", "193349.763000", "193350.787000", "193351.840000", "193352.795000", "193353.794000", "193354.792000", "193355.778000", "193356.800000", "193357.755000", "193358.795000", "193359.804000", "193400.776000", "193401.792000", "193402.797000", "193403.803000", "193404.795000", "193405.809000", "193406.763000", "193407.828000", "193408.777000", "193409.785000", "193410.766000", "193411.793000", "193412.785000", "193413.763000", "193414.772000", "193415.749000", "193416.789000", "193417.775000", "193418.779000", "193419.814000", "193420.787000", "193421.764000", "193422.769000", "193423.758000", "193424.789000", "193425.775000", "193426.764000", "193427.778000", "193428.793000", "193429.793000", "193430.790000", "193431.764000", "193432.763000", "193433.759000", "193434.790000", "193435.786000", "193436.775000", "193437.800000", "193438.807000", "193439.758000", "193440.748000", "193441.791000", "193442.832000", "193443.841000", "193444.799000", "193445.763000", "193446.777000", "193447.797000", "193448.771000", "193449.777000", "193450.782000", "193451.774000", "193452.777000", "193453.777000", "193454.770000", "193455.801000", "193456.742000", "193457.799000", "193458.743000", "193459.772000", "193500.790000", "193501.763000", "193502.785000", "193503.820000", "193504.770000", "193505.760000", "193506.764000", "193507.760000", "193508.789000", "193509.757000", "193510.785000", "193511.845000", "193512.809000", "193513.762000", "193514.785000", "193515.791000", "193516.782000", "193517.775000", "193518.794000", "193519.781000", "193520.779000", "193521.771000", "193522.766000", "193523.769000", "193524.777000", "193525.782000", "193526.791000", "193527.764000", "193528.764000", "193529.784000", "193530.779000", "193531.807000", "193532.792000", "193533.833000", "193534.789000", "193535.772000", "193536.780000", "193537.836000", "193538.802000", "193539.750000", "193540.777000", "193541.831000", "193542.789000", "193543.772000", "193544.796000", "193545.787000", "193546.769000", "193547.787000", "193548.785000", "193549.758000", "193550.765000", "193551.880000", "193552.827000", "193553.815000", "193554.776000", "193555.773000", "193556.810000"],
      "InstanceCreationTime": ["193201.966000", "193202.821000", "193203.803000", "193204.783000", "193205.777000", "193206.778000", "193207.771000", "193208.784000", "193209.771000", "193210.790000", "193211.783000", "193212.778000", "193213.771000", "193214.767000", "193215.786000", "193216.777000", "193217.760000", "193218.762000", "193219.784000", "193220.750000", "193221.759000", "193222.777000", "193223.782000", "193224.749000", "193225.781000", "193226.777000", "193227.760000", "193228.750000", "193229.791000", "193230.777000", "193231.753000", "193232.765000", "193233.784000", "193234.762000", "193235.776000", "193236.783000", "193237.775000", "193238.771000", "193239.766000", "193240.754000", "193241.803000", "193242.789000", "193243.762000", "193244.768000", "193245.762000", "193246.770000", "193247.775000", "193248.779000", "193249.793000", "193250.768000", "193251.794000", "193252.756000", "193253.778000", "193254.792000", "193255.775000", "193256.822000", "193257.767000", "193258.774000", "193259.768000", "193300.789000", "193301.762000", "193302.759000", "193303.834000", "193304.778000", "193305.770000", "193306.800000", "193307.784000", "193308.784000", "193309.815000", "193310.753000", "193311.768000", "193312.759000", "193313.764000", "193314.778000", "193315.784000", "193316.761000", "193317.775000", "193318.810000", "193319.761000", "193320.808000", "193321.823000", "193322.785000", "193323.756000", "193324.791000", "193325.761000", "193326.815000", "193327.809000", "193328.759000", "193329.847000", "193330.808000", "193331.781000", "193332.766000", "193333.732000", "193334.786000", "193335.775000", "193336.755000", "193337.782000", "193338.807000", "193339.820000", "193340.778000", "193341.805000", "193342.823000", "193343.779000", "193344.806000", "193345.771000", "193346.778000", "193347.779000", "193348.756000", "193349.763000", "193350.787000", "193351.840000", "193352.795000", "193353.794000", "193354.792000", "193355.778000", "193356.800000", "193357.755000", "193358.795000", "193359.804000", "193400.776000", "193401.792000", "193402.797000", "193403.803000", "193404.795000", "193405.809000", "193406.763000", "193407.828000", "193408.777000", "193409.785000", "193410.766000", "193411.793000", "193412.785000", "193413.763000", "193414.772000", "193415.749000", "193416.789000", "193417.775000", "193418.779000", "193419.814000", "193420.787000", "193421.764000", "193422.769000", "193423.758000", "193424.789000", "193425.775000", "193426.764000", "193427.778000", "193428.793000", "193429.793000", "193430.790000", "193431.764000", "193432.763000", "193433.759000", "193434.790000", "193435.786000", "193436.775000", "193437.800000", "193438.807000", "193439.758000", "193440.748000", "193441.791000", "193442.832000", "193443.841000", "193444.799000", "193445.763000", "193446.777000", "193447.797000", "193448.771000", "193449.777000", "193450.782000", "193451.774000", "193452.777000", "193453.777000", "193454.770000", "193455.801000", "193456.742000", "193457.799000", "193458.743000", "193459.772000", "193500.790000", "193501.763000", "193502.785000", "193503.820000", "193504.770000", "193505.760000", "193506.764000", "193507.760000", "193508.789000", "193509.757000", "193510.785000", "193511.845000", "193512.809000", "193513.762000", "193514.785000", "193515.791000", "193516.782000", "193517.775000", "193518.794000", "193519.781000", "193520.779000", "193521.771000", "193522.766000", "193523.769000", "193524.777000", "193525.782000", "193526.791000", "193527.764000", "193528.764000", "193529.784000", "193530.779000", "193531.807000", "193532.792000", "193533.833000", "193534.789000", "193535.772000", "193536.780000", "193537.836000", "193538.802000", "193539.750000", "193540.777000", "193541.831000", "193542.789000", "193543.772000", "193544.796000", "193545.787000", "193546.769000", "193547.787000", "193548.785000", "193549.758000", "193550.765000", "193551.880000", "193552.827000", "193553.815000", "193554.776000", "193555.773000", "193556.810000"],
      "InstanceNumber": [1, 2, 3, 4, 5, 6, 7, 8, 9, 10, 11, 12, 13, 14, 15, 16, 17, 18, 19, 20, 21, 22, 23, 24, 25, 26, 27, 28, 29, 30, 31, 32, 33, 34, 35, 36, 37, 38, 39, 40, 41, 42, 43, 44, 45, 46, 47, 48, 49, 50, 51, 52, 53, 54, 55, 56, 57, 58, 59, 60, 61, 62, 63, 64, 65, 66, 67, 68, 69, 70, 71, 72, 73, 74, 75, 76, 77, 78, 79, 80, 81, 82, 83, 84, 85, 86, 87, 88, 89, 90, 91, 92, 93, 94, 95, 96, 97, 98, 99, 100, 101, 102, 103, 104, 105, 106, 107, 108, 109, 110, 111, 112, 113, 114, 115, 116, 117, 118, 119, 120, 121, 122, 123, 124, 125, 126, 127, 128, 129, 130, 131, 132, 133, 134, 135, 136, 137, 138, 139, 140, 141, 142, 143, 144, 145, 146, 147, 148, 149, 150, 151, 152, 153, 154, 155, 156, 157, 158, 159, 160, 161, 162, 163, 164, 165, 166, 167, 168, 169, 170, 171, 172, 173, 174, 175, 176, 177, 178, 179, 180, 181, 182, 183, 184, 185, 186, 187, 188, 189, 190, 191, 192, 193, 194, 195, 196, 197, 198, 199, 200, 201, 202, 203, 204, 205, 206, 207, 208, 209, 210, 211, 212, 213, 214, 215, 216, 217, 218, 219, 220, 221, 222, 223, 224, 225, 226, 227, 228, 229, 230, 231, 232, 233, 234, 235, 236],
      "LargestImagePixelValue": [883, 919, 789, 703, 719, 848, 1037, 733, 777, 831, 1102, 1380, 756, 703, 846, 873, 1141, 926, 716, 739, 777, 956, 1108, 706, 753, 876, 925, 951, 742, 731, 803, 1026, 923, 738, 696, 810, 895, 768, 712, 843, 1111, 828, 756, 769, 1005, 1000, 758, 780, 715, 759, 827, 757, 739, 708, 909, 1011, 725, 840, 748, 986, 1078, 742, 714, 819, 898, 1078, 785, 713, 795, 993, 737, 734, 835, 1071, 791, 738, 784, 872, 991, 765, 762, 833, 1159, 1426, 730, 759, 782, 843, 881, 717, 850, 1130, 1460, 761, 751, 813, 883, 1035, 742, 736, 743, 778, 748, 759, 820, 873, 1312, 752, 756, 807, 833, 862, 723, 817, 869, 891, 748, 716, 752, 861, 826, 1225, 739, 726, 723, 806, 860, 1003, 1184, 1188, 1310, 1417, 1611, 1140, 835, 734, 738, 733, 721, 728, 725, 845, 712, 736, 741, 823, 1143, 778, 816, 847, 1118, 707, 732, 775, 740, 810, 780, 792, 827, 1269, 1626, 1326, 869, 893, 798, 918, 715, 757, 842, 967, 776, 721, 730, 795, 872, 749, 775, 761, 875, 775, 720, 815, 1358, 1072, 784, 870, 811, 704, 742, 813, 722, 776, 1057, 1515, 1028, 743, 854, 896, 1546, 986, 667, 692, 707, 763, 874, 999, 1440, 1256, 878, 854, 870, 821, 729, 775, 744, 787, 771, 998, 838, 769, 721, 708, 821, 828, 733, 829, 897, 813, 721, 808, 753, 765, 855, 856, 749, 732],
      "WindowCenter": [362.0, 362.0, 360.0, 359.0, 360.0, 361.0, 362.0, 360.0, 361.0, 361.0, 363.0, 364.0, 360.0, 360.0, 362.0, 362.0, 363.0, 361.0, 359.0, 360.0, 360.0, 362.0, 363.0, 360.0, 361.0, 362.0, 362.0, 361.0, 360.0, 360.0, 361.0, 362.0, 362.0, 360.0, 360.0, 361.0, 362.0, 360.0, 360.0, 361.0, 363.0, 360.0, 360.0, 360.0, 362.0, 361.0, 360.0, 360.0, 360.0, 360.0, 360.0, 360.0, 361.0, 360.0, 361.0, 362.0, 360.0, 361.0, 361.0, 362.0, 362.0, 360.0, 360.0, 361.0, 362.0, 363.0, 360.0, 360.0, 361.0, 362.0, 360.0, 360.0, 361.0, 362.0, 360.0, 360.0, 360.0, 362.0, 362.0, 360.0, 360.0, 361.0, 363.0, 364.0, 359.0, 360.0, 361.0, 361.0, 361.0, 360.0, 362.0, 363.0, 364.0, 360.0, 360.0, 360.0, 361.0, 362.0, 359.0, 360.0, 360.0, 360.0, 360.0, 360.0, 361.0, 361.0, 364.0, 360.0, 360.0, 361.0, 360.0, 361.0, 360.0, 361.0, 361.0, 361.0, 360.0, 360.0, 360.0, 361.0, 360.0, 364.0, 360.0, 362.0, 362.0, 362.0, 361.0, 361.0, 363.0, 362.0, 363.0, 363.0, 363.0, 360.0, 358.0, 357.0, 358.0, 358.0, 358.0, 358.0, 358.0, 360.0, 359.0, 360.0, 360.0, 361.0, 363.0, 360.0, 361.0, 360.0, 362.0, 359.0, 360.0, 361.0, 361.0, 361.0, 361.0, 361.0, 361.0, 364.0, 365.0, 363.0, 360.0, 361.0, 360.0, 361.0, 359.0, 360.0, 361.0, 361.0, 360.0, 360.0, 360.0, 361.0, 361.0, 360.0, 361.0, 361.0, 362.0, 361.0, 360.0, 361.0, 364.0, 362.0, 360.0, 361.0, 360.0, 359.0, 360.0, 361.0, 361.0, 361.0, 363.0, 364.0, 361.0, 359.0, 360.0, 360.0, 364.0, 361.0, 359.0, 361.0, 361.0, 361.0, 361.0, 362.0, 363.0, 362.0, 359.0, 359.0, 359.0, 359.0, 357.0, 359.0, 359.0, 359.0, 359.0, 360.0, 359.0, 358.0, 359.0, 359.0, 360.0, 360.0, 359.0, 360.0, 361.0, 360.0, 359.0, 360.0, 361.0, 361.0, 361.0, 361.0, 361.0, 361.0],
      "WindowWidth": [776.0, 774.0, 771.0, 770.0, 772.0, 773.0, 774.0, 771.0, 772.0, 773.0, 775.0, 777.0, 772.0, 772.0, 774.0, 774.0, 775.0, 772.0, 770.0, 771.0, 772.0, 774.0, 775.0, 772.0, 772.0, 774.0, 774.0, 773.0, 771.0, 771.0, 773.0, 775.0, 774.0, 771.0, 771.0, 773.0, 774.0, 772.0, 772.0, 773.0, 775.0, 772.0, 771.0, 771.0, 774.0, 773.0, 771.0, 771.0, 771.0, 771.0, 771.0, 771.0, 772.0, 771.0, 773.0, 775.0, 771.0, 773.0, 772.0, 774.0, 773.0, 770.0, 771.0, 773.0, 774.0, 775.0, 771.0, 772.0, 773.0, 774.0, 771.0, 771.0, 773.0, 774.0, 772.0, 771.0, 772.0, 773.0, 774.0, 771.0, 771.0, 772.0, 775.0, 776.0, 770.0, 771.0, 772.0, 773.0, 772.0, 771.0, 774.0, 776.0, 777.0, 770.0, 771.0, 772.0, 772.0, 774.0, 770.0, 771.0, 771.0, 771.0, 770.0, 771.0, 772.0, 773.0, 776.0, 771.0, 771.0, 772.0, 772.0, 772.0, 771.0, 773.0, 773.0, 773.0, 771.0, 771.0, 771.0, 772.0, 772.0, 777.0, 771.0, 774.0, 774.0, 775.0, 773.0, 773.0, 775.0, 774.0, 774.0, 774.0, 775.0, 770.0, 767.0, 766.0, 767.0, 767.0, 767.0, 768.0, 768.0, 770.0, 769.0, 771.0, 772.0, 773.0, 775.0, 771.0, 772.0, 771.0, 774.0, 769.0, 771.0, 773.0, 773.0, 774.0, 773.0, 773.0, 773.0, 777.0, 778.0, 775.0, 771.0, 772.0, 770.0, 772.0, 770.0, 771.0, 773.0, 773.0, 771.0, 771.0, 772.0, 772.0, 773.0, 772.0, 772.0, 772.0, 774.0, 772.0, 771.0, 772.0, 776.0, 774.0, 771.0, 772.0, 771.0, 770.0, 771.0, 773.0, 773.0, 774.0, 776.0, 777.0, 773.0, 770.0, 771.0, 771.0, 777.0, 773.0, 770.0, 773.0, 773.0, 773.0, 773.0, 773.0, 775.0, 773.0, 768.0, 770.0, 769.0, 769.0, 767.0, 768.0, 769.0, 769.0, 769.0, 770.0, 768.0, 768.0, 769.0, 769.0, 771.0, 770.0, 769.0, 772.0, 772.0, 770.0, 770.0, 771.0, 772.0, 772.0, 773.0, 773.0, 772.0, 773.0]
    },
    "slices": {}
  }
}