{
  "AcquisitionMatrixPE": 96,
  "AcquisitionNumber": 1,
  "AcquisitionTime": "19:20:49.407500",
  "BandwidthPerPixelPhaseEncode": 18.939,
  "BaseResolution": 96,
  "BodyPartExamined": "BRAIN",
  "ConsistencyInfo": "N4_VE11C_LATEST_20160120",
  "ConversionSoftware": "dcm2niix",
  "ConversionSoftwareVersion": "v1.0.20170923 (OpenJPEG build) GCC6.3.0",
  "DerivedVendorReportedEchoSpacing": 0.000550011,
  "DeviceSerialNumber": "66112",
  "DwellTime": 2.2e-06,
  "EchoTime": 0.033,
  "EchoTrainLength": 96,
  "EffectiveEchoSpacing": 0.000550011,
  "FlipAngle": 59,
  "ImageType": [
    "ORIGINAL",
    "PRIMARY",
    "FMRI",
    "NONE",
    "ND",
    "NORM",
    "MOSAIC"
  ],
  "InstitutionAddress": "Maynard_3_Hanover_NH_US_03755",
  "InstitutionName": "Dartmouth_College_-_PBS",
  "MagneticFieldStrength": 3,
  "Manufacturer": "Siemens",
  "ManufacturersModelName": "Prisma",
  "Modality": "MR",
  "MultibandAccelerationFactor": 4,
  "PercentPhaseFOV": 100,
  "PhaseEncodingDirection": "j-",
  "PhaseEncodingSteps": 96,
  "PhaseResolution": 1,
  "ProcedureStepDescription": "Gobbini_Matteo_1038_hyperface",
  "ProtocolName": "func_run-03_task-visualmemory",
  "PulseSequenceDetails": "%SiemensSeq%_ep2d_bold",
  "ReceiveCoilActiveElements": "HEA;HEP",
  "ReceiveCoilName": "Head_32",
  "ReconMatrixPE": 96,
  "RepetitionTime": 1,
  "ScanOptions": "FS",
  "ScanningSequence": "EP",
  "SequenceName": "_epfid2d1_96",
  "SequenceVariant": "SK",
  "SeriesDescription": "func_run-03_task-visualmemory",
  "SliceTiming": [
    0.735,
    0,
    0.49,
    0.0825,
    0.5725,
    0.165,
    0.655,
    0.3275,
    0.8175,
    0.41,
    0.9,
    0.245,
    0.735,
    0,
    0.49,
    0.0825,
    0.5725,
    0.165,
    0.655,
    0.3275,
    0.8175,
    0.41,
    0.9,
    0.245,
    0.735,
    0,
    0.49,
    0.0825,
    0.5725,
    0.165,
    0.655,
    0.3275,
    0.8175,
    0.41,
    0.9,
    0.245,
    0.735,
    0,
    0.49,
    0.0825,
    0.5725,
    0.165,
    0.655,
    0.3275,
    0.8175,
    0.41,
    0.9,
    0.245
  ],
  "SoftwareVersions": "syngo_MR_E11",
  "StationName": "AWP66112",
  "TotalReadoutTime": 0.0522511,
  "dcmmeta_affine": [
    [
      -2.4942104816436768,
      -0.1700383722782135,
      0.0008187742787413299,
      128.72369384765625
    ],
    [
      -0.16999104619026184,
      2.493748426437378,
      0.04819004610180855,
      -98.08399200439453
    ],
    [
      0.004094389732927084,
      -0.04802277311682701,
      2.499535322189331,
      -56.58952713012695
    ],
    [
      0.0,
      0.0,
      0.0,
      1.0
    ]
  ],
  "dcmmeta_reorient_transform": [
    [
      0.0,
      -1.0,
      0.0,
      95.0
    ],
    [
      1.0,
      0.0,
      0.0,
      0.0
    ],
    [
      0.0,
      0.0,
      1.0,
      0.0
    ],
    [
      0.0,
      0.0,
      0.0,
      1.0
    ]
  ],
  "dcmmeta_shape": [
    96,
    96,
    48,
    288
  ],
  "dcmmeta_slice_dim": 2,
  "dcmmeta_version": 0.6,
  "global": {
    "const": {
      "AccessionNumber": "A001142",
      "AcquisitionMatrix": [
        96,
        0,
        0,
        96
      ],
      "AngioFlag": "N",
      "BitsAllocated": 16,
      "BitsStored": 12,
      "BodyPartExamined": "BRAIN",
      "Columns": 672,
      "EchoNumbers": 1,
      "EchoTime": 33.0,
      "EchoTrainLength": 96,
      "FlipAngle": 59.0,
      "HighBit": 11,
      "ImageOrientationPatient": [
        0.9976842210626,
        0.06799641754222,
        0.00163775582428,
        -0.0680153495919,
        0.99749933450194,
        0.01920910950781
      ],
      "ImagePositionPatient": [
        -781.93163220396,
        -905.97903814715,
        -76.161433254686
      ],
      "ImageType": [
        "ORIGINAL",
        "PRIMARY",
        "FMRI",
        "NONE",
        "ND",
        "NORM",
        "MOSAIC"
      ],
      "ImagedNucleus": "1H",
      "ImagingFrequency": 123.252307,
      "InPlanePhaseEncodingDirection": "COL",
      "MRAcquisitionType": "2D",
      "MagneticFieldStrength": 3.0,
      "Manufacturer": "SIEMENS",
      "ManufacturerModelName": "Prisma",
      "Modality": "MR",
      "NumberOfAverages": 1.0,
      "NumberOfPhaseEncodingSteps": 96,
      "PercentPhaseFieldOfView": 100.0,
      "PercentSampling": 100.0,
      "PerformedProcedureStepStartTime": "185927.297000",
      "PhotometricInterpretation": "MONOCHROME2",
      "PixelBandwidth": 2365.0,
      "PixelRepresentation": 0,
      "PixelSpacing": [
        2.5,
        2.5
      ],
      "PositionReferenceIndicator": "",
      "ProtocolName": "func_run-03_task-visualmemory",
      "RepetitionTime": 1000.0,
      "Rows": 672,
      "SAR": 0.05635698738504,
      "SamplesPerPixel": 1,
      "ScanOptions": "FS",
      "ScanningSequence": "EP",
      "SequenceName": "*epfid2d1_96",
      "SequenceVariant": "SK",
      "SeriesDescription": "func_run-03_task-visualmemory",
      "SeriesNumber": 21,
      "SeriesTime": "192050.700000",
      "SliceLocation": -58.427519953596,
      "SliceThickness": 2.5,
      "SmallestImagePixelValue": 0,
      "SoftwareVersions": "syngo MR E11",
      "SpacingBetweenSlices": 2.4999999705777,
      "SpecificCharacterSet": "ISO_IR 100",
      "StudyID": "3",
      "StudyTime": "185927.167000",
      "TransmitCoilName": "Body",
      "VariableFlipAngleFlag": "N",
      "WindowCenterWidthExplanation": "Algo1",
      "dBdt": 0.0
    },
    "slices": {}
  },
  "time": {
    "samples": {
      "AcquisitionNumber": [
        1,
        2,
        3,
        4,
        5,
        6,
        7,
        8,
        9,
        10,
        11,
        12,
        13,
        14,
        15,
        16,
        17,
        18,
        19,
        20,
        21,
        22,
        23,
        24,
        25,
        26,
        27,
        28,
        29,
        30,
        31,
        32,
        33,
        34,
        35,
        36,
        37,
        38,
        39,
        40,
        41,
        42,
        43,
        44,
        45,
        46,
        47,
        48,
        49,
        50,
        51,
        52,
        53,
        54,
        55,
        56,
        57,
        58,
        59,
        60,
        61,
        62,
        63,
        64,
        65,
        66,
        67,
        68,
        69,
        70,
        71,
        72,
        73,
        74,
        75,
        76,
        77,
        78,
        79,
        80,
        81,
        82,
        83,
        84,
        85,
        86,
        87,
        88,
        89,
        90,
        91,
        92,
        93,
        94,
        95,
        96,
        97,
        98,
        99,
        100,
        101,
        102,
        103,
        104,
        105,
        106,
        107,
        108,
        109,
        110,
        111,
        112,
        113,
        114,
        115,
        116,
        117,
        118,
        119,
        120,
        121,
        122,
        123,
        124,
        125,
        126,
        127,
        128,
        129,
        130,
        131,
        132,
        133,
        134,
        135,
        136,
        137,
        138,
        139,
        140,
        141,
        142,
        143,
        144,
        145,
        146,
        147,
        148,
        149,
        150,
        151,
        152,
        153,
        154,
        155,
        156,
        157,
        158,
        159,
        160,
        161,
        162,
        163,
        164,
        165,
        166,
        167,
        168,
        169,
        170,
        171,
        172,
        173,
        174,
        175,
        176,
        177,
        178,
        179,
        180,
        181,
        182,
        183,
        184,
        185,
        186,
        187,
        188,
        189,
        190,
        191,
        192,
        193,
        194,
        195,
        196,
        197,
        198,
        199,
        200,
        201,
        202,
        203,
        204,
        205,
        206,
        207,
        208,
        209,
        210,
        211,
        212,
        213,
        214,
        215,
        216,
        217,
        218,
        219,
        220,
        221,
        222,
        223,
        224,
        225,
        226,
        227,
        228,
        229,
        230,
        231,
        232,
        233,
        234,
        235,
        236,
        237,
        238,
        239,
        240,
        241,
        242,
        243,
        244,
        245,
        246,
        247,
        248,
        249,
        250,
        251,
        252,
        253,
        254,
        255,
        256,
        257,
        258,
        259,
        260,
        261,
        262,
        263,
        264,
        265,
        266,
        267,
        268,
        269,
        270,
        271,
        272,
        273,
        274,
        275,
        276,
        277,
        278,
        279,
        280,
        281,
        282,
        283,
        284,
        285,
        286,
        287,
        288
      ],
      "AcquisitionTime": [
        "192049.407500",
        "192050.407500",
        "192051.407500",
        "192052.407500",
        "192053.407500",
        "192054.407500",
        "192055.407500",
        "192056.407500",
        "192057.407500",
        "192058.407500",
        "192059.407500",
        "192100.407500",
        "192101.407500",
        "192102.407500",
        "192103.407500",
        "192104.407500",
        "192105.407500",
        "192106.407500",
        "192107.407500",
        "192108.407500",
        "192109.407500",
        "192110.407500",
        "192111.407500",
        "192112.407500",
        "192113.407500",
        "192114.407500",
        "192115.407500",
        "192116.407500",
        "192117.407500",
        "192118.407500",
        "192119.407500",
        "192120.407500",
        "192121.407500",
        "192122.407500",
        "192123.407500",
        "192124.407500",
        "192125.407500",
        "192126.407500",
        "192127.407500",
        "192128.407500",
        "192129.407500",
        "192130.407500",
        "192131.407500",
        "192132.407500",
        "192133.407500",
        "192134.407500",
        "192135.407500",
        "192136.407500",
        "192137.407500",
        "192138.407500",
        "192139.407500",
        "192140.407500",
        "192141.407500",
        "192142.407500",
        "192143.407500",
        "192144.407500",
        "192145.407500",
        "192146.407500",
        "192147.407500",
        "192148.407500",
        "192149.407500",
        "192150.407500",
        "192151.407500",
        "192152.407500",
        "192153.407500",
        "192154.407500",
        "192155.407500",
        "192156.407500",
        "192157.407500",
        "192158.407500",
        "192159.407500",
        "192200.407500",
        "192201.407500",
        "192202.407500",
        "192203.407500",
        "192204.407500",
        "192205.407500",
        "192206.407500",
        "192207.407500",
        "192208.407500",
        "192209.407500",
        "192210.407500",
        "192211.407500",
        "192212.407500",
        "192213.407500",
        "192214.407500",
        "192215.407500",
        "192216.407500",
        "192217.407500",
        "192218.407500",
        "192219.407500",
        "192220.407500",
        "192221.407500",
        "192222.407500",
        "192223.407500",
        "192224.407500",
        "192225.407500",
        "192226.407500",
        "192227.407500",
        "192228.407500",
        "192229.407500",
        "192230.407500",
        "192231.407500",
        "192232.407500",
        "192233.407500",
        "192234.407500",
        "192235.407500",
        "192236.407500",
        "192237.407500",
        "192238.407500",
        "192239.407500",
        "192240.407500",
        "192241.407500",
        "192242.407500",
        "192243.407500",
        "192244.407500",
        "192245.407500",
        "192246.407500",
        "192247.407500",
        "192248.407500",
        "192249.407500",
        "192250.407500",
        "192251.407500",
        "192252.407500",
        "192253.407500",
        "192254.407500",
        "192255.407500",
        "192256.407500",
        "192257.407500",
        "192258.407500",
        "192259.407500",
        "192300.407500",
        "192301.407500",
        "192302.407500",
        "192303.407500",
        "192304.407500",
        "192305.407500",
        "192306.407500",
        "192307.407500",
        "192308.407500",
        "192309.407500",
        "192310.407500",
        "192311.407500",
        "192312.407500",
        "192313.407500",
        "192314.407500",
        "192315.407500",
        "192316.407500",
        "192317.407500",
        "192318.407500",
        "192319.407500",
        "192320.407500",
        "192321.407500",
        "192322.407500",
        "192323.407500",
        "192324.407500",
        "192325.407500",
        "192326.407500",
        "192327.407500",
        "192328.407500",
        "192329.407500",
        "192330.407500",
        "192331.407500",
        "192332.407500",
        "192333.407500",
        "192334.407500",
        "192335.407500",
        "192336.407500",
        "192337.407500",
        "192338.407500",
        "192339.407500",
        "192340.407500",
        "192341.407500",
        "192342.407500",
        "192343.407500",
        "192344.407500",
        "192345.407500",
        "192346.407500",
        "192347.407500",
        "192348.407500",
        "192349.407500",
        "192350.407500",
        "192351.407500",
        "192352.407500",
        "192353.407500",
        "192354.407500",
        "192355.407500",
        "192356.407500",
        "192357.407500",
        "192358.407500",
        "192359.407500",
        "192400.407500",
        "192401.407500",
        "192402.407500",
        "192403.407500",
        "192404.407500",
        "192405.407500",
        "192406.407500",
        "192407.407500",
        "192408.407500",
        "192409.407500",
        "192410.407500",
        "192411.407500",
        "192412.407500",
        "192413.407500",
        "192414.407500",
        "192415.407500",
        "192416.407500",
        "192417.407500",
        "192418.407500",
        "192419.407500",
        "192420.407500",
        "192421.407500",
        "192422.407500",
        "192423.407500",
        "192424.407500",
        "192425.407500",
        "192426.407500",
        "192427.407500",
        "192428.407500",
        "192429.407500",
        "192430.407500",
        "192431.407500",
        "192432.407500",
        "192433.407500",
        "192434.407500",
        "192435.407500",
        "192436.407500",
        "192437.407500",
        "192438.407500",
        "192439.407500",
        "192440.407500",
        "192441.407500",
        "192442.407500",
        "192443.407500",
        "192444.407500",
        "192445.407500",
        "192446.407500",
        "192447.407500",
        "192448.407500",
        "192449.407500",
        "192450.407500",
        "192451.407500",
        "192452.407500",
        "192453.407500",
        "192454.407500",
        "192455.407500",
        "192456.407500",
        "192457.407500",
        "192458.407500",
        "192459.407500",
        "192500.407500",
        "192501.407500",
        "192502.407500",
        "192503.407500",
        "192504.407500",
        "192505.407500",
        "192506.407500",
        "192507.407500",
        "192508.407500",
        "192509.407500",
        "192510.407500",
        "192511.407500",
        "192512.407500",
        "192513.407500",
        "192514.407500",
        "192515.407500",
        "192516.407500",
        "192517.407500",
        "192518.407500",
        "192519.407500",
        "192520.407500",
        "192521.407500",
        "192522.407500",
        "192523.407500",
        "192524.407500",
        "192525.407500",
        "192526.407500",
        "192527.407500",
        "192528.407500",
        "192529.407500",
        "192530.407500",
        "192531.407500",
        "192532.407500",
        "192533.407500",
        "192534.407500",
        "192535.407500",
        "192536.407500"
      ],
      "ContentTime": [
        "192050.704000",
        "192051.531000",
        "192052.513000",
        "192053.487000",
        "192054.501000",
        "192055.490000",
        "192056.508000",
        "192057.495000",
        "192058.509000",
        "192059.504000",
        "192100.494000",
        "192101.484000",
        "192102.497000",
        "192103.474000",
        "192104.480000",
        "192105.503000",
        "192106.482000",
        "192107.497000",
        "192108.489000",
        "192109.495000",
        "192110.499000",
        "192111.500000",
        "192112.499000",
        "192113.508000",
        "192114.489000",
        "192115.498000",
        "192116.495000",
        "192117.473000",
        "192118.486000",
        "192119.501000",
        "192120.510000",
        "192121.493000",
        "192122.486000",
        "192123.501000",
        "192124.531000",
        "192125.532000",
        "192126.494000",
        "192127.494000",
        "192128.547000",
        "192129.526000",
        "192130.508000",
        "192131.519000",
        "192132.502000",
        "192133.495000",
        "192134.496000",
        "192135.517000",
        "192136.485000",
        "192137.477000",
        "192138.500000",
        "192139.502000",
        "192140.506000",
        "192141.493000",
        "192142.523000",
        "192143.535000",
        "192144.560000",
        "192145.525000",
        "192146.493000",
        "192147.496000",
        "192148.495000",
        "192149.478000",
        "192150.491000",
        "192151.508000",
        "192152.490000",
        "192153.525000",
        "192154.522000",
        "192155.515000",
        "192156.532000",
        "192157.472000",
        "192158.514000",
        "192159.512000",
        "192200.492000",
        "192201.517000",
        "192202.491000",
        "192203.497000",
        "192204.512000",
        "192205.495000",
        "192206.488000",
        "192207.521000",
        "192208.505000",
        "192209.515000",
        "192210.513000",
        "192211.509000",
        "192212.498000",
        "192213.486000",
        "192214.500000",
        "192215.499000",
        "192216.505000",
        "192217.507000",
        "192218.499000",
        "192219.533000",
        "192220.488000",
        "192221.493000",
        "192222.485000",
        "192223.500000",
        "192224.477000",
        "192225.528000",
        "192226.515000",
        "192227.485000",
        "192228.491000",
        "192229.491000",
        "192230.524000",
        "192231.538000",
        "192232.492000",
        "192233.508000",
        "192234.502000",
        "192235.494000",
        "192236.514000",
        "192237.525000",
        "192238.509000",
        "192239.495000",
        "192240.504000",
        "192241.522000",
        "192242.531000",
        "192243.522000",
        "192244.526000",
        "192245.568000",
        "192246.509000",
        "192247.492000",
        "192248.480000",
        "192249.503000",
        "192250.494000",
        "192251.543000",
        "192252.521000",
        "192253.498000",
        "192254.502000",
        "192255.493000",
        "192256.496000",
        "192257.494000",
        "192258.516000",
        "192259.502000",
        "192300.537000",
        "192301.538000",
        "192302.501000",
        "192303.508000",
        "192304.485000",
        "192305.559000",
        "192306.558000",
        "192307.518000",
        "192308.483000",
        "192309.491000",
        "192310.506000",
        "192311.504000",
        "192312.498000",
        "192313.508000",
        "192314.497000",
        "192315.535000",
        "192316.511000",
        "192317.508000",
        "192318.536000",
        "192319.513000",
        "192320.489000",
        "192321.571000",
        "192322.481000",
        "192323.472000",
        "192324.502000",
        "192325.491000",
        "192326.519000",
        "192327.502000",
        "192328.546000",
        "192329.481000",
        "192330.495000",
        "192331.498000",
        "192332.519000",
        "192333.497000",
        "192334.522000",
        "192335.489000",
        "192336.510000",
        "192337.520000",
        "192338.502000",
        "192339.529000",
        "192340.523000",
        "192341.520000",
        "192342.509000",
        "192343.528000",
        "192344.530000",
        "192345.510000",
        "192346.475000",
        "192347.527000",
        "192348.488000",
        "192349.486000",
        "192350.537000",
        "192351.538000",
        "192352.524000",
        "192353.498000",
        "192354.513000",
        "192355.500000",
        "192356.499000",
        "192357.495000",
        "192358.512000",
        "192359.476000",
        "192400.548000",
        "192401.539000",
        "192402.548000",
        "192403.527000",
        "192404.497000",
        "192405.515000",
        "192406.522000",
        "192407.505000",
        "192408.493000",
        "192409.510000",
        "192410.564000",
        "192411.570000",
        "192412.510000",
        "192413.501000",
        "192414.527000",
        "192415.504000",
        "192416.500000",
        "192417.488000",
        "192418.506000",
        "192419.483000",
        "192420.496000",
        "192421.495000",
        "192422.534000",
        "192423.528000",
        "192424.479000",
        "192425.501000",
        "192426.496000",
        "192427.511000",
        "192428.496000",
        "192429.500000",
        "192430.487000",
        "192431.484000",
        "192432.503000",
        "192433.530000",
        "192434.507000",
        "192435.516000",
        "192436.475000",
        "192437.531000",
        "192438.519000",
        "192439.513000",
        "192440.532000",
        "192441.504000",
        "192442.491000",
        "192443.488000",
        "192444.497000",
        "192445.494000",
        "192446.496000",
        "192447.526000",
        "192448.539000",
        "192449.530000",
        "192450.504000",
        "192451.485000",
        "192452.540000",
        "192453.488000",
        "192454.508000",
        "192455.499000",
        "192456.511000",
        "192457.478000",
        "192458.513000",
        "192459.519000",
        "192500.503000",
        "192501.501000",
        "192502.498000",
        "192503.556000",
        "192504.522000",
        "192505.534000",
        "192506.543000",
        "192507.527000",
        "192508.488000",
        "192509.461000",
        "192510.514000",
        "192511.510000",
        "192512.514000",
        "192513.499000",
        "192514.510000",
        "192515.487000",
        "192516.499000",
        "192517.485000",
        "192518.517000",
        "192519.521000",
        "192520.517000",
        "192521.480000",
        "192522.498000",
        "192523.519000",
        "192524.505000",
        "192525.533000",
        "192526.515000",
        "192527.495000",
        "192528.495000",
        "192529.526000",
        "192530.470000",
        "192531.480000",
        "192532.488000",
        "192533.545000",
        "192534.509000",
        "192535.500000",
        "192536.540000",
        "192537.514000"
      ],
      "InstanceCreationTime": [
        "192050.704000",
        "192051.531000",
        "192052.513000",
        "192053.487000",
        "192054.501000",
        "192055.490000",
        "192056.508000",
        "192057.495000",
        "192058.509000",
        "192059.504000",
        "192100.494000",
        "192101.484000",
        "192102.497000",
        "192103.474000",
        "192104.480000",
        "192105.503000",
        "192106.482000",
        "192107.497000",
        "192108.489000",
        "192109.495000",
        "192110.499000",
        "192111.500000",
        "192112.499000",
        "192113.508000",
        "192114.489000",
        "192115.498000",
        "192116.495000",
        "192117.473000",
        "192118.486000",
        "192119.501000",
        "192120.510000",
        "192121.493000",
        "192122.486000",
        "192123.501000",
        "192124.531000",
        "192125.532000",
        "192126.494000",
        "192127.494000",
        "192128.547000",
        "192129.526000",
        "192130.508000",
        "192131.519000",
        "192132.502000",
        "192133.495000",
        "192134.496000",
        "192135.517000",
        "192136.485000",
        "192137.477000",
        "192138.500000",
        "192139.502000",
        "192140.506000",
        "192141.493000",
        "192142.523000",
        "192143.535000",
        "192144.560000",
        "192145.525000",
        "192146.493000",
        "192147.496000",
        "192148.495000",
        "192149.478000",
        "192150.491000",
        "192151.508000",
        "192152.490000",
        "192153.525000",
        "192154.522000",
        "192155.515000",
        "192156.532000",
        "192157.472000",
        "192158.514000",
        "192159.512000",
        "192200.492000",
        "192201.517000",
        "192202.491000",
        "192203.497000",
        "192204.512000",
        "192205.495000",
        "192206.488000",
        "192207.521000",
        "192208.505000",
        "192209.515000",
        "192210.513000",
        "192211.509000",
        "192212.498000",
        "192213.486000",
        "192214.500000",
        "192215.499000",
        "192216.505000",
        "192217.507000",
        "192218.499000",
        "192219.533000",
        "192220.488000",
        "192221.493000",
        "192222.485000",
        "192223.500000",
        "192224.477000",
        "192225.528000",
        "192226.515000",
        "192227.485000",
        "192228.491000",
        "192229.491000",
        "192230.524000",
        "192231.538000",
        "192232.492000",
        "192233.508000",
        "192234.502000",
        "192235.494000",
        "192236.514000",
        "192237.525000",
        "192238.509000",
        "192239.495000",
        "192240.504000",
        "192241.522000",
        "192242.531000",
        "192243.522000",
        "192244.526000",
        "192245.568000",
        "192246.509000",
        "192247.492000",
        "192248.480000",
        "192249.503000",
        "192250.494000",
        "192251.543000",
        "192252.521000",
        "192253.498000",
        "192254.502000",
        "192255.493000",
        "192256.496000",
        "192257.494000",
        "192258.516000",
        "192259.502000",
        "192300.537000",
        "192301.538000",
        "192302.501000",
        "192303.508000",
        "192304.485000",
        "192305.559000",
        "192306.558000",
        "192307.518000",
        "192308.483000",
        "192309.491000",
        "192310.506000",
        "192311.504000",
        "192312.498000",
        "192313.508000",
        "192314.497000",
        "192315.535000",
        "192316.511000",
        "192317.508000",
        "192318.536000",
        "192319.513000",
        "192320.489000",
        "192321.571000",
        "192322.481000",
        "192323.472000",
        "192324.502000",
        "192325.491000",
        "192326.519000",
        "192327.502000",
        "192328.546000",
        "192329.481000",
        "192330.495000",
        "192331.498000",
        "192332.519000",
        "192333.497000",
        "192334.522000",
        "192335.489000",
        "192336.510000",
        "192337.520000",
        "192338.502000",
        "192339.529000",
        "192340.523000",
        "192341.520000",
        "192342.509000",
        "192343.528000",
        "192344.530000",
        "192345.510000",
        "192346.475000",
        "192347.527000",
        "192348.488000",
        "192349.486000",
        "192350.537000",
        "192351.538000",
        "192352.524000",
        "192353.498000",
        "192354.513000",
        "192355.500000",
        "192356.499000",
        "192357.495000",
        "192358.512000",
        "192359.476000",
        "192400.548000",
        "192401.539000",
        "192402.548000",
        "192403.527000",
        "192404.497000",
        "192405.515000",
        "192406.522000",
        "192407.505000",
        "192408.493000",
        "192409.510000",
        "192410.564000",
        "192411.570000",
        "192412.510000",
        "192413.501000",
        "192414.527000",
        "192415.504000",
        "192416.500000",
        "192417.488000",
        "192418.506000",
        "192419.483000",
        "192420.496000",
        "192421.495000",
        "192422.534000",
        "192423.528000",
        "192424.479000",
        "192425.501000",
        "192426.496000",
        "192427.511000",
        "192428.496000",
        "192429.500000",
        "192430.487000",
        "192431.484000",
        "192432.503000",
        "192433.530000",
        "192434.507000",
        "192435.516000",
        "192436.475000",
        "192437.531000",
        "192438.519000",
        "192439.513000",
        "192440.532000",
        "192441.504000",
        "192442.491000",
        "192443.488000",
        "192444.497000",
        "192445.494000",
        "192446.496000",
        "192447.526000",
        "192448.539000",
        "192449.530000",
        "192450.504000",
        "192451.485000",
        "192452.540000",
        "192453.488000",
        "192454.508000",
        "192455.499000",
        "192456.511000",
        "192457.478000",
        "192458.513000",
        "192459.519000",
        "192500.503000",
        "192501.501000",
        "192502.498000",
        "192503.556000",
        "192504.522000",
        "192505.534000",
