{
  "AcquisitionMatrixPE": 120,
  "AcquisitionNumber": 1,
  "BandwidthPerPixelPhaseEncode": 13.889,
  "BaseResolution": 120,
  "BodyPartExamined": "BRAIN",
  "ConsistencyInfo": "N4_VE11C_LATEST_20160120",
  "ConversionSoftware": "dcm2niix",
  "ConversionSoftwareVersion": "v1.0.20171215 (OpenJPEG build) GCC6.3.0",
  "DerivedVendorReportedEchoSpacing": 0.000599995,
  "DeviceSerialNumber": "66112",
  "DwellTime": 2e-06,
  "EchoTime": 0.103,
  "EchoTrainLength": 120,
  "EffectiveEchoSpacing": 0.000599995,
  "FlipAngle": 90,
  "ImageOrientationPatientDICOM": [
    0.999287,
    0.0340023,
    -0.0164387,
    -0.0359436,
    0.989843,
    -0.137547
  ],
  "ImageType": [
    "ORIGINAL",
    "PRIMARY",
    "DIFFUSION",
    "NONE",
    "ND",
    "NORM",
    "MOSAIC"
  ],
  "InPlanePhaseEncodingDirectionDICOM": "COL",
  "InstitutionAddress": "Maynard_3_Hanover_NH_US_03755",
  "InstitutionName": "Dartmouth_College_-_PBS",
  "InstitutionalDepartmentName": "Department",
  "MRAcquisitionType": "2D",
  "MagneticFieldStrength": 3,
  "Manufacturer": "Siemens",
  "ManufacturersModelName": "Prisma",
  "Modality": "MR",
  "MultibandAccelerationFactor": 4,
  "PartialFourier": 1,
  "PatientPosition": "HFS",
  "PercentPhaseFOV": 100,
  "PhaseEncodingDirection": "j-",
  "PhaseEncodingSteps": 120,
  "PhaseResolution": 1,
  "PixelBandwidth": 2085,
  "ProcedureStepDescription": "Gobbini_Matteo_1038_hyperface",
  "ProtocolName": "dwi_acq-2.0mmXhardi96Xsms4X11b0",
  "PulseSequenceDetails": "%SiemensSeq%_ep2d_diff",
  "ReceiveCoilActiveElements": "HEA;HEP",
  "ReceiveCoilName": "Head_32",
  "ReconMatrixPE": 120,
  "RepetitionTime": 2.6,
  "SAR": 0.311126,
  "ScanOptions": "FS",
  "ScanningSequence": "EP",
  "SequenceName": "_ep_b0",
  "SequenceVariant": "SK_SP",
  "SeriesDescription": "dwi_acq-2.0mmXhardi96Xsms4X11b0",
  "SeriesNumber": 66,
  "ShimSetting": [
    4146,
    -7684,
    -7290,
    519,
    -30,
    12,
    53,
    108
  ],
  "SliceThickness": 2,
  "SliceTiming": [
    1.935,
    0,
    1.29,
    0.16,
    1.45,
    0.3225,
    1.6125,
    0.4825,
    1.7725,
    0.805,
    2.095,
    0.9675,
    2.2575,
    1.1275,
    2.4175,
    0.645,
    1.935,
    0,
    1.29,
    0.16,
    1.45,
    0.3225,
    1.6125,
    0.4825,
    1.7725,
    0.805,
    2.095,
    0.9675,
    2.2575,
    1.1275,
    2.4175,
    0.645,
    1.935,
    0,
    1.29,
    0.16,
    1.45,
    0.3225,
    1.6125,
    0.4825,
    1.7725,
    0.805,
    2.095,
    0.9675,
    2.2575,
    1.1275,
    2.4175,
    0.645,
    1.935,
    0,
    1.29,
    0.16,
    1.45,
    0.3225,
    1.6125,
    0.4825,
    1.7725,
    0.805,
    2.095,
    0.9675,
    2.2575,
    1.1275,
    2.4175,
    0.645
  ],
  "SoftwareVersions": "syngo_MR_E11",
  "SpacingBetweenSlices": 2,
  "StationName": "AWP66112",
  "TotalReadoutTime": 0.0713994,
  "TxRefAmp": 244.909,
  "time": {
    "samples": {
      "AcquisitionNumber": [
        1,
        2,
        3,
        4,
        5,
        6,
        7,
        8,
        9,
        10,
        11,
        12,
        13,
        14,
        15,
        16,
        17,
        18,
        19,
        20,
        21,
        22,
        23,
        24,
        25,
        26,
        27,
        28,
        29,
        30,
        31,
        32,
        33,
        34,
        35,
        36,
        37,
        38,
        39,
        40,
        41,
        42,
        43,
        44,
        45,
        46,
        47,
        48,
        49,
        50,
        51,
        52,
        53,
        54,
        55,
        56,
        57,
        58,
        59,
        60,
        61,
        62,
        63,
        64,
        65,
        66,
        67,
        68,
        69,
        70,
        71,
        72,
        73,
        74,
        75,
        76,
        77,
        78,
        79,
        80,
        81,
        82,
        83,
        84,
        85,
        86,
        87,
        88,
        89,
        90,
        91,
        92,
        93,
        94,
        95,
        96,
        97,
        98,
        99,
        100,
        101,
        102,
        103,
        104,
        105,
        106,
        107
      ],
      "AcquisitionTime": [
        "195606.510000",
        "195609.110000",
        "195611.710000",
        "195614.310000",
        "195616.910000",
        "195619.510000",
        "195622.110000",
        "195624.710000",
        "195627.310000",
        "195629.910000",
        "195632.510000",
        "195635.110000",
        "195637.710000",
        "195640.310000",
        "195642.910000",
        "195645.510000",
        "195648.110000",
        "195650.710000",
        "195653.310000",
        "195655.910000",
        "195658.510000",
        "195701.110000",
        "195703.710000",
        "195706.310000",
        "195708.910000",
        "195711.510000",
        "195714.110000",
        "195716.710000",
        "195719.310000",
        "195721.910000",
        "195724.510000",
        "195727.110000",
        "195729.710000",
        "195732.310000",
        "195734.910000",
        "195737.510000",
        "195740.110000",
        "195742.710000",
        "195745.310000",
        "195747.910000",
        "195750.510000",
        "195753.110000",
        "195755.710000",
        "195758.310000",
        "195800.910000",
        "195803.510000",
        "195806.110000",
        "195808.710000",
        "195811.310000",
        "195813.910000",
        "195816.510000",
        "195819.110000",
        "195821.710000",
        "195824.310000",
        "195826.910000",
        "195829.510000",
        "195832.110000",
        "195834.710000",
        "195837.310000",
        "195839.910000",
        "195842.510000",
        "195845.110000",
        "195847.710000",
        "195850.310000",
        "195852.910000",
        "195855.510000",
        "195858.110000",
        "195900.710000",
        "195903.310000",
        "195905.910000",
        "195908.510000",
        "195911.110000",
        "195913.710000",
        "195916.310000",
        "195918.910000",
        "195921.510000",
        "195924.110000",
        "195926.710000",
        "195929.310000",
        "195931.910000",
        "195934.510000",
        "195937.110000",
        "195939.710000",
        "195942.310000",
        "195944.910000",
        "195947.510000",
        "195950.110000",
        "195952.710000",
        "195955.310000",
        "195957.910000",
        "200000.510000",
        "200003.110000",
        "200005.710000",
        "200008.310000",
        "200010.910000",
        "200013.510000",
        "200016.110000",
        "200018.710000",
        "200021.310000",
        "200023.910000",
        "200026.510000",
        "200029.110000",
        "200031.710000",
        "200034.310000",
        "200036.910000",
        "200039.510000",
        "200042.110000"
      ],
      "ContentTime": [
        "195706.217000",
        "195706.221000",
        "195706.231000",
        "195706.235000",
        "195706.238000",
        "195706.241000",
        "195706.244000",
        "195706.247000",
        "195706.250000",
        "195706.255000",
        "195706.258000",
        "195706.261000",
        "195706.264000",
        "195706.267000",
        "195706.270000",
        "195706.274000",
        "195706.277000",
        "195706.280000",
        "195706.283000",
        "195706.286000",
        "195706.289000",
        "195706.292000",
        "195706.295000",
        "195806.211000",
        "195806.215000",
        "195806.218000",
        "195806.221000",
        "195806.224000",
        "195806.227000",
        "195806.230000",
        "195806.233000",
        "195806.237000",
        "195806.240000",
        "195806.250000",
        "195806.253000",
        "195806.257000",
        "195806.260000",
        "195806.263000",
        "195806.266000",
        "195806.269000",
        "195806.272000",
        "195806.275000",
        "195806.278000",
        "195806.281000",
        "195806.284000",
        "195806.287000",
        "195906.212000",
        "195906.216000",
        "195906.219000",
        "195906.222000",
        "195906.225000",
        "195906.228000",
        "195906.231000",
        "195906.234000",
        "195906.237000",
        "195906.240000",
        "195906.243000",
        "195906.247000",
        "195906.250000",
        "195906.253000",
        "195906.256000",
        "195906.259000",
        "195906.262000",
        "195906.265000",
        "195906.269000",
        "195906.272000",
        "195906.275000",
        "195906.278000",
        "195906.281000",
        "200006.211000",
        "200006.215000",
        "200006.218000",
        "200006.221000",
        "200006.224000",
        "200006.227000",
        "200006.230000",
        "200006.233000",
        "200006.236000",
        "200006.239000",
        "200006.243000",
        "200006.246000",
        "200006.249000",
        "200006.252000",
        "200006.259000",
        "200006.262000",
        "200006.265000",
        "200006.268000",
        "200006.271000",
        "200006.274000",
        "200006.277000",
        "200006.280000",
        "200006.283000",
        "200043.709000",
        "200043.712000",
        "200043.715000",
        "200043.719000",
        "200043.722000",
        "200043.725000",
        "200043.728000",
        "200043.731000",
        "200043.734000",
        "200043.737000",
        "200043.740000",
        "200043.743000",
        "200043.747000",
        "200043.750000",
        "200043.753000"
      ],
      "InstanceCreationTime": [
        "195706.217000",
        "195706.221000",
        "195706.231000",
        "195706.235000",
        "195706.238000",
        "195706.241000",
        "195706.244000",
        "195706.247000",
        "195706.250000",
        "195706.255000",
        "195706.258000",
        "195706.261000",
        "195706.264000",
        "195706.267000",
        "195706.270000",
        "195706.274000",
        "195706.277000",
        "195706.280000",
        "195706.283000",
        "195706.286000",
        "195706.289000",
        "195706.292000",
        "195706.295000",
        "195806.211000",
        "195806.215000",
        "195806.218000",
        "195806.221000",
        "195806.224000",
        "195806.227000",
        "195806.230000",
        "195806.233000",
        "195806.237000",
        "195806.240000",
        "195806.250000",
        "195806.253000",
        "195806.257000",
        "195806.260000",
        "195806.263000",
        "195806.266000",
        "195806.269000",
        "195806.272000",
        "195806.275000",
        "195806.278000",
        "195806.281000",
        "195806.284000",
        "195806.287000",
        "195906.212000",
        "195906.216000",
        "195906.219000",
        "195906.222000",
        "195906.225000",
        "195906.228000",
        "195906.231000",
        "195906.234000",
        "195906.237000",
        "195906.240000",
        "195906.243000",
        "195906.247000",
        "195906.250000",
        "195906.253000",
        "195906.256000",
        "195906.259000",
        "195906.262000",
        "195906.265000",
        "195906.269000",
        "195906.272000",
        "195906.275000",
        "195906.278000",
        "195906.281000",
        "200006.211000",
        "200006.215000",
        "200006.218000",
        "200006.221000",
        "200006.224000",
        "200006.227000",
        "200006.230000",
        "200006.233000",
        "200006.236000",
        "200006.239000",
        "200006.243000",
        "200006.246000",
        "200006.249000",
        "200006.252000",
        "200006.259000",
        "200006.262000",
        "200006.265000",
        "200006.268000",
        "200006.271000",
        "200006.274000",
        "200006.277000",
        "200006.280000",
        "200006.283000",
        "200043.709000",
        "200043.712000",
        "200043.715000",
        "200043.719000",
        "200043.722000",
        "200043.725000",
        "200043.728000",
        "200043.731000",
        "200043.734000",
        "200043.737000",
        "200043.740000",
        "200043.743000",
        "200043.747000",
        "200043.750000",
        "200043.753000"
      ],
      "InstanceNumber": [
        1,
        2,
        3,
        4,
        5,
        6,
        7,
        8,
        9,
        10,
        11,
        12,
        13,
        14,
        15,
        16,
        17,
        18,
        19,
        20,
        21,
        22,
        23,
        24,
        25,
        26,
        27,
        28,
        29,
        30,
        31,
        32,
        33,
        34,
        35,
        36,
        37,
        38,
        39,
        40,
        41,
        42,
        43,
        44,
        45,
        46,
        47,
        48,
        49,
        50,
        51,
        52,
        53,
        54,
        55,
        56,
        57,
        58,
        59,
        60,
        61,
        62,
        63,
        64,
        65,
        66,
        67,
        68,
        69,
        70,
        71,
        72,
        73,
        74,
        75,
        76,
        77,
        78,
        79,
        80,
        81,
        82,
        83,
        84,
        85,
        86,
        87,
        88,
        89,
        90,
        91,
        92,
        93,
        94,
        95,
        96,
        97,
        98,
        99,
        100,
        101,
        102,
        103,
        104,
        105,
        106,
        107
      ],
      "LargestImagePixelValue": [
        1691,
        1609,
        550,
        606,
        556,
        565,
        624,
        476,
        521,
        445,
        611,
        1710,
        597,
        562,
        577,
        599,
        507,
        511,
        571,
        645,
        493,
        541,
        1789,
        606,
        687,
        560,
        587,
        508,
        533,
        501,
        497,
        482,
        565,
        1872,
        537,
        530,
        509,
        512,
        538,
        536,
        611,
        484,
        560,
        624,
        1875,
        461,
        521,
        493,
        528,
        527,
        504,
        487,
        527,
        481,
        495,
        2196,
        639,
        553,
        458,
        571,
        590,
        505,
        501,
        582,
        512,
        527,
        2062,
        530,
        570,
        619,
        494,
        508,
        523,
        638,
        507,
        579,
        498,
        1863,
        467,
        545,
        613,
        527,
        565,
        488,
        627,
        559,
        494,
        1980,
        554,
        466,
        487,
        507,
        612,
        483,
        669,
        610,
        553,
        1794,
        496,
        535,
        522,
        617,
        536,
        554,
        524,
        523,
        518
      ],
      "SequenceName": [
        "*ep_b0",
        "*ep_b0",
        "*ep_b1000#2",
        "*ep_b1000#3",
        "*ep_b1000#4",
        "*ep_b1000#5",
        "*ep_b1000#6",
        "*ep_b1000#7",
        "*ep_b1000#8",
        "*ep_b1000#9",
        "*ep_b1000#10",
        "*ep_b0",
        "*ep_b1000#12",
        "*ep_b1000#13",
        "*ep_b1000#14",
        "*ep_b1000#15",
        "*ep_b1000#16",
        "*ep_b1000#17",
        "*ep_b1000#18",
        "*ep_b1000#19",
        "*ep_b1000#20",
        "*ep_b1000#21",
        "*ep_b0",
        "*ep_b1000#23",
        "*ep_b1000#24",
        "*ep_b1000#25",
        "*ep_b1000#26",
        "*ep_b1000#27",
        "*ep_b1000#28",
        "*ep_b1000#29",
        "*ep_b1000#30",
        "*ep_b1000#31",
        "*ep_b1000#32",
        "*ep_b0",
        "*ep_b1000#34",
        "*ep_b1000#35",
        "*ep_b1000#36",
        "*ep_b1000#37",
        "*ep_b1000#38",
        "*ep_b1000#39",
        "*ep_b1000#40",
        "*ep_b1000#41",
        "*ep_b1000#42",
        "*ep_b1000#43",
        "*ep_b0",
        "*ep_b1000#45",
        "*ep_b1000#46",
        "*ep_b1000#47",
        "*ep_b1000#48",
        "*ep_b1000#49",
        "*ep_b1000#50",
        "*ep_b1000#51",
        "*ep_b1000#52",
        "*ep_b1000#53",
        "*ep_b1000#54",
        "*ep_b0",
        "*ep_b1000#56",
        "*ep_b1000#57",
        "*ep_b1000#58",
        "*ep_b1000#59",
        "*ep_b1000#60",
        "*ep_b1000#61",
        "*ep_b1000#62",
        "*ep_b1000#63",
        "*ep_b1000#64",
        "*ep_b1000#65",
        "*ep_b0",
        "*ep_b1000#67",
        "*ep_b1000#68",
        "*ep_b1000#69",
        "*ep_b1000#70",
        "*ep_b1000#71",
        "*ep_b1000#72",
        "*ep_b1000#73",
        "*ep_b1000#74",
        "*ep_b1000#75",
        "*ep_b1000#76",
        "*ep_b0",
        "*ep_b1000#78",
        "*ep_b1000#79",
        "*ep_b1000#80",
        "*ep_b1000#81",
        "*ep_b1000#82",
        "*ep_b1000#83",
        "*ep_b1000#84",
        "*ep_b1000#85",
        "*ep_b1000#86",
        "*ep_b0",
        "*ep_b1000#88",
        "*ep_b1000#89",
        "*ep_b1000#90",
        "*ep_b1000#91",
        "*ep_b1000#92",
        "*ep_b1000#93",
        "*ep_b1000#94",
        "*ep_b1000#95",
        "*ep_b1000#96",
        "*ep_b0",
        "*ep_b1000#98",
        "*ep_b1000#99",
        "*ep_b1000#100",
        "*ep_b1000#101",
        "*ep_b1000#102",
        "*ep_b1000#103",
        "*ep_b1000#104",
        "*ep_b1000#105",
        "*ep_b1000#106"
      ],
      "WindowCenter": [
        223,
        223,
        105,
        110,
        107,
        109,
        108,
        106,
        109,
        104,
        109,
        224,
        108,
        106,
        107,
        108,
        109,
        105,
        108,
        109,
        106,
        108,
        225,
        107,
        110,
        107,
        107,
        108,
        106,
        109,
        106,
        107,
        110,
        224,
        107,
        107,
        105,
        110,
        107,
        109,
        108,
        107,
        107,
        110,
        223,
        106,
        107,
        110,
        107,
        108,
        107,
        107,
        107,
        107,
        108,
        229,
        108,
        106,
        107,
        106,
        110,
        108,
        108,
        107,
        107,
        108,
        229,
        107,
        110,
        108,
        106,
        107,
        106,
        108,
        106,
        108,
        107,
        226,
        108,
        108,
        108,
        107,
        108,
        106,
        109,
        108,
        107,
        226,
        107,
        108,
        109,
        108,
        108,
        105,
        110,
        108,
        107,
        223,
        108,
        108,
        106,
        108,
        108,
        108,
        107,
        108,
        106
      ],
      "WindowWidth": [
        534,
        534,
        265,
        276,
        269,
        274,
        271,
        268,
        274,
        263,
        275,
        535,
        273,
        268,
        269,
        271,
        273,
        266,
        273,
        276,
        268,
        271,
        536,
        270,
        277,
        271,
        270,
        273,
        267,
        274,
        267,
        270,
        277,
        534,
        270,
        269,
        265,
        276,
        269,
        273,
        271,
        270,
        269,
        276,
        533,
        268,
        269,
        276,
        270,
        272,
        269,
        270,
        270,
        270,
        272,
        543,
        273,
        267,
        270,
        267,
        276,
        271,
        271,
        269,
        269,
        271,
        543,
        270,
        276,
        273,
        268,
        269,
        268,
        273,
        267,
        273,
        269,
        538,
        271,
        271,
        273,
        270,
        273,
        267,
        275,
        271,
        269,
        538,
        269,
        271,
        273,
        272,
        271,
        266,
        277,
        271,
        271,
        531,
        271,
        271,
        268,
        273,
        272,
        273,
        269,
        273,
        267
      ]
    },
    "slices": {}
  }
}
