{
  "AcquisitionMatrixPE": 96,
  "AcquisitionNumber": 1,
  "BandwidthPerPixelPhaseEncode": 18.939,
  "BaseResolution": 96,
  "BodyPartExamined": "BRAIN",
  "ConsistencyInfo": "N4_VE11C_LATEST_20160120",
  "ConversionSoftware": "dcm2niix",
  "ConversionSoftwareVersion": "v1.0.20170923 (OpenJPEG build) GCC6.3.0",
  "DerivedVendorReportedEchoSpacing": 0.000550011,
  "DeviceSerialNumber": "66112",
  "DwellTime": 2.2e-06,
  "EchoTime": 0.033,
  "EchoTrainLength": 96,
  "EffectiveEchoSpacing": 0.000550011,
  "FlipAngle": 59,
  "ImageType": [
    "ORIGINAL",
    "PRIMARY",
    "FMRI",
    "NONE",
    "ND",
    "NORM",
    "MOSAIC"
  ],
  "InstitutionAddress": "Maynard_3_Hanover_NH_US_03755",
  "InstitutionName": "Dartmouth_College_-_PBS",
  "MagneticFieldStrength": 3,
  "Manufacturer": "Siemens",
  "ManufacturersModelName": "Prisma",
  "Modality": "MR",
  "MultibandAccelerationFactor": 4,
  "PercentPhaseFOV": 100,
  "PhaseEncodingDirection": "j-",
  "PhaseEncodingSteps": 96,
  "PhaseResolution": 1,
  "ProcedureStepDescription": "Gobbini_Matteo_1038_hyperface",
  "ProtocolName": "func_run-04_task-visualmemory",
  "PulseSequenceDetails": "%SiemensSeq%_ep2d_bold",
  "ReceiveCoilActiveElements": "HEA;HEP",
  "ReceiveCoilName": "Head_32",
  "ReconMatrixPE": 96,
  "RepetitionTime": 1,
  "ScanOptions": "FS",
  "ScanningSequence": "EP",
  "SequenceName": "_epfid2d1_96",
  "SequenceVariant": "SK",
  "SeriesDescription": "func_run-04_task-visualmemory",
  "SliceTiming": [
    0.735,
    0,
    0.49,
    0.0825,
    0.5725,
    0.165,
    0.655,
    0.3275,
    0.8175,
    0.41,
    0.9,
    0.245,
    0.735,
    0,
    0.49,
    0.0825,
    0.5725,
    0.165,
    0.655,
    0.3275,
    0.8175,
    0.41,
    0.9,
    0.245,
    0.735,
    0,
    0.49,
    0.0825,
    0.5725,
    0.165,
    0.655,
    0.3275,
    0.8175,
    0.41,
    0.9,
    0.245,
    0.735,
    0,
    0.49,
    0.0825,
    0.5725,
    0.165,
    0.655,
    0.3275,
    0.8175,
    0.41,
    0.9,
    0.245
  ],
  "SoftwareVersions": "syngo_MR_E11",
  "StationName": "AWP66112",
  "TotalReadoutTime": 0.0522511,
  "time": {
    "samples": {
      "AcquisitionNumber": [
        1,
        2,
        3,
        4,
        5,
        6,
        7,
        8,
        9,
        10,
        11,
        12,
        13,
        14,
        15,
        16,
        17,
        18,
        19,
        20,
        21,
        22,
        23,
        24,
        25,
        26,
        27,
        28,
        29,
        30,
        31,
        32,
        33,
        34,
        35,
        36,
        37,
        38,
        39,
        40,
        41,
        42,
        43,
        44,
        45,
        46,
        47,
        48,
        49,
        50,
        51,
        52,
        53,
        54,
        55,
        56,
        57,
        58,
        59,
        60,
        61,
        62,
        63,
        64,
        65,
        66,
        67,
        68,
        69,
        70,
        71,
        72,
        73,
        74,
        75,
        76,
        77,
        78,
        79,
        80,
        81,
        82,
        83,
        84,
        85,
        86,
        87,
        88,
        89,
        90,
        91,
        92,
        93,
        94,
        95,
        96,
        97,
        98,
        99,
        100,
        101,
        102,
        103,
        104,
        105,
        106,
        107,
        108,
        109,
        110,
        111,
        112,
        113,
        114,
        115,
        116,
        117,
        118,
        119,
        120,
        121,
        122,
        123,
        124,
        125,
        126,
        127,
        128,
        129,
        130,
        131,
        132,
        133,
        134,
        135,
        136,
        137,
        138,
        139,
        140,
        141,
        142,
        143,
        144,
        145,
        146,
        147,
        148,
        149,
        150,
        151,
        152,
        153,
        154,
        155,
        156,
        157,
        158,
        159,
        160,
        161,
        162,
        163,
        164,
        165,
        166,
        167,
        168,
        169,
        170,
        171,
        172,
        173,
        174,
        175,
        176,
        177,
        178,
        179,
        180,
        181,
        182,
        183,
        184,
        185,
        186,
        187,
        188,
        189,
        190,
        191,
        192,
        193,
        194,
        195,
        196,
        197,
        198,
        199,
        200,
        201,
        202,
        203,
        204,
        205,
        206,
        207,
        208,
        209,
        210,
        211,
        212,
        213,
        214,
        215,
        216,
        217,
        218,
        219,
        220,
        221,
        222,
        223,
        224,
        225,
        226,
        227,
        228,
        229,
        230,
        231,
        232,
        233,
        234,
        235,
        236,
        237,
        238,
        239,
        240,
        241,
        242,
        243,
        244,
        245,
        246,
        247,
        248,
        249,
        250,
        251,
        252,
        253,
        254,
        255,
        256,
        257,
        258,
        259,
        260,
        261,
        262,
        263,
        264,
        265,
        266,
        267,
        268,
        269,
        270,
        271,
        272,
        273,
        274,
        275,
        276,
        277,
        278,
        279,
        280,
        281,
        282,
        283,
        284,
        285,
        286,
        287,
        288
      ],
      "AcquisitionTime": [
        "173742.805000",
        "173743.805000",
        "173744.805000",
        "173745.805000",
        "173746.805000",
        "173747.805000",
        "173748.805000",
        "173749.805000",
        "173750.805000",
        "173751.805000",
        "173752.805000",
        "173753.805000",
        "173754.805000",
        "173755.805000",
        "173756.805000",
        "173757.805000",
        "173758.805000",
        "173759.805000",
        "173800.805000",
        "173801.805000",
        "173802.805000",
        "173803.805000",
        "173804.805000",
        "173805.805000",
        "173806.805000",
        "173807.805000",
        "173808.805000",
        "173809.805000",
        "173810.805000",
        "173811.805000",
        "173812.805000",
        "173813.805000",
        "173814.805000",
        "173815.805000",
        "173816.805000",
        "173817.805000",
        "173818.805000",
        "173819.805000",
        "173820.805000",
        "173821.805000",
        "173822.805000",
        "173823.805000",
        "173824.805000",
        "173825.805000",
        "173826.805000",
        "173827.805000",
        "173828.805000",
        "173829.805000",
        "173830.805000",
        "173831.805000",
        "173832.805000",
        "173833.805000",
        "173834.805000",
        "173835.805000",
        "173836.805000",
        "173837.805000",
        "173838.805000",
        "173839.805000",
        "173840.805000",
        "173841.805000",
        "173842.805000",
        "173843.805000",
        "173844.805000",
        "173845.805000",
        "173846.805000",
        "173847.805000",
        "173848.805000",
        "173849.805000",
        "173850.805000",
        "173851.805000",
        "173852.805000",
        "173853.805000",
        "173854.805000",
        "173855.805000",
        "173856.805000",
        "173857.805000",
        "173858.805000",
        "173859.805000",
        "173900.805000",
        "173901.805000",
        "173902.805000",
        "173903.805000",
        "173904.805000",
        "173905.805000",
        "173906.805000",
        "173907.805000",
        "173908.805000",
        "173909.805000",
        "173910.805000",
        "173911.805000",
        "173912.805000",
        "173913.805000",
        "173914.805000",
        "173915.805000",
        "173916.805000",
        "173917.805000",
        "173918.805000",
        "173919.805000",
        "173920.805000",
        "173921.805000",
        "173922.805000",
        "173923.805000",
        "173924.805000",
        "173925.805000",
        "173926.805000",
        "173927.805000",
        "173928.805000",
        "173929.805000",
        "173930.805000",
        "173931.805000",
        "173932.805000",
        "173933.805000",
        "173934.805000",
        "173935.805000",
        "173936.805000",
        "173937.805000",
        "173938.805000",
        "173939.805000",
        "173940.805000",
        "173941.805000",
        "173942.805000",
        "173943.805000",
        "173944.805000",
        "173945.805000",
        "173946.805000",
        "173947.805000",
        "173948.805000",
        "173949.805000",
        "173950.805000",
        "173951.805000",
        "173952.805000",
        "173953.805000",
        "173954.805000",
        "173955.805000",
        "173956.805000",
        "173957.805000",
        "173958.805000",
        "173959.805000",
        "174000.805000",
        "174001.805000",
        "174002.805000",
        "174003.805000",
        "174004.805000",
        "174005.805000",
        "174006.805000",
        "174007.805000",
        "174008.805000",
        "174009.805000",
        "174010.805000",
        "174011.805000",
        "174012.805000",
        "174013.805000",
        "174014.805000",
        "174015.805000",
        "174016.805000",
        "174017.805000",
        "174018.805000",
        "174019.805000",
        "174020.805000",
        "174021.805000",
        "174022.805000",
        "174023.805000",
        "174024.805000",
        "174025.805000",
        "174026.805000",
        "174027.805000",
        "174028.805000",
        "174029.805000",
        "174030.805000",
        "174031.805000",
        "174032.805000",
        "174033.805000",
        "174034.805000",
        "174035.805000",
        "174036.805000",
        "174037.805000",
        "174038.805000",
        "174039.805000",
        "174040.805000",
        "174041.805000",
        "174042.805000",
        "174043.805000",
        "174044.805000",
        "174045.805000",
        "174046.805000",
        "174047.805000",
        "174048.805000",
        "174049.805000",
        "174050.805000",
        "174051.805000",
        "174052.805000",
        "174053.805000",
        "174054.805000",
        "174055.805000",
        "174056.805000",
        "174057.805000",
        "174058.805000",
        "174059.805000",
        "174100.805000",
        "174101.805000",
        "174102.805000",
        "174103.805000",
        "174104.805000",
        "174105.805000",
        "174106.805000",
        "174107.805000",
        "174108.805000",
        "174109.805000",
        "174110.805000",
        "174111.805000",
        "174112.805000",
        "174113.805000",
        "174114.805000",
        "174115.805000",
        "174116.805000",
        "174117.805000",
        "174118.805000",
        "174119.805000",
        "174120.805000",
        "174121.805000",
        "174122.805000",
        "174123.805000",
        "174124.805000",
        "174125.805000",
        "174126.805000",
        "174127.805000",
        "174128.805000",
        "174129.805000",
        "174130.805000",
        "174131.805000",
        "174132.805000",
        "174133.805000",
        "174134.805000",
        "174135.805000",
        "174136.805000",
        "174137.805000",
        "174138.805000",
        "174139.805000",
        "174140.805000",
        "174141.805000",
        "174142.805000",
        "174143.805000",
        "174144.805000",
        "174145.805000",
        "174146.805000",
        "174147.805000",
        "174148.805000",
        "174149.805000",
        "174150.805000",
        "174151.805000",
        "174152.805000",
        "174153.805000",
        "174154.805000",
        "174155.805000",
        "174156.805000",
        "174157.805000",
        "174158.805000",
        "174159.805000",
        "174200.805000",
        "174201.805000",
        "174202.805000",
        "174203.805000",
        "174204.805000",
        "174205.805000",
        "174206.805000",
        "174207.805000",
        "174208.805000",
        "174209.805000",
        "174210.805000",
        "174211.805000",
        "174212.805000",
        "174213.805000",
        "174214.805000",
        "174215.805000",
        "174216.805000",
        "174217.805000",
        "174218.805000",
        "174219.805000",
        "174220.805000",
        "174221.805000",
        "174222.805000",
        "174223.805000",
        "174224.805000",
        "174225.805000",
        "174226.805000",
        "174227.805000",
        "174228.805000",
        "174229.805000"
      ],
      "ContentTime": [
        "173743.784000",
        "173744.607000",
        "173745.623000",
        "173746.587000",
        "173747.603000",
        "173748.604000",
        "173749.597000",
        "173750.608000",
        "173751.586000",
        "173752.582000",
        "173753.610000",
        "173754.667000",
        "173755.578000",
        "173756.627000",
        "173757.554000",
        "173758.620000",
        "173759.607000",
        "173800.631000",
        "173801.571000",
        "173802.604000",
        "173803.610000",
        "173804.614000",
        "173805.605000",
        "173806.582000",
        "173807.600000",
        "173808.574000",
        "173809.621000",
        "173810.589000",
        "173811.576000",
        "173812.587000",
        "173813.614000",
        "173814.629000",
        "173815.591000",
        "173816.592000",
        "173817.577000",
        "173818.581000",
        "173819.562000",
        "173820.583000",
        "173821.585000",
        "173822.558000",
        "173823.612000",
        "173824.556000",
        "173825.578000",
        "173826.598000",
        "173827.615000",
        "173828.607000",
        "173829.584000",
        "173830.603000",
        "173831.606000",
        "173832.639000",
        "173833.626000",
        "173834.624000",
        "173835.628000",
        "173836.605000",
        "173837.579000",
        "173838.607000",
        "173839.597000",
        "173840.544000",
        "173841.615000",
        "173842.627000",
        "173843.586000",
        "173844.576000",
        "173845.587000",
        "173846.571000",
        "173847.599000",
        "173848.580000",
        "173849.607000",
        "173850.591000",
        "173851.594000",
        "173852.567000",
        "173853.588000",
        "173854.581000",
        "173855.587000",
        "173856.598000",
        "173857.578000",
        "173858.598000",
        "173859.594000",
        "173900.594000",
        "173901.580000",
        "173902.590000",
        "173903.658000",
        "173904.595000",
        "173905.652000",
        "173906.586000",
        "173907.663000",
        "173908.586000",
        "173909.597000",
        "173910.578000",
        "173911.585000",
        "173912.589000",
        "173913.581000",
        "173914.582000",
        "173915.599000",
        "173916.590000",
        "173917.601000",
        "173918.607000",
        "173919.579000",
        "173920.601000",
        "173921.610000",
        "173922.605000",
        "173923.590000",
        "173924.583000",
        "173925.600000",
        "173926.608000",
        "173927.612000",
        "173928.628000",
        "173929.606000",
        "173930.601000",
        "173931.616000",
        "173932.589000",
        "173933.680000",
        "173934.609000",
        "173935.583000",
        "173936.585000",
        "173937.603000",
        "173938.590000",
        "173939.610000",
        "173940.610000",
        "173941.588000",
        "173942.612000",
        "173943.562000",
        "173944.635000",
        "173945.623000",
        "173946.602000",
        "173947.606000",
        "173948.598000",
        "173949.580000",
        "173950.622000",
        "173951.603000",
        "173952.599000",
        "173953.603000",
        "173954.609000",
        "173955.638000",
        "173956.625000",
        "173957.582000",
        "173958.596000",
        "173959.617000",
        "174000.607000",
        "174001.610000",
        "174002.609000",
        "174003.607000",
        "174004.584000",
        "174005.634000",
        "174006.602000",
        "174007.606000",
        "174008.601000",
        "174009.616000",
        "174010.567000",
        "174011.607000",
        "174012.605000",
        "174013.633000",
        "174014.585000",
        "174015.619000",
        "174016.592000",
        "174017.627000",
        "174018.593000",
        "174019.611000",
        "174020.599000",
        "174021.598000",
        "174022.603000",
        "174023.612000",
        "174024.595000",
        "174025.601000",
        "174026.598000",
        "174027.614000",
        "174028.576000",
        "174029.584000",
        "174030.574000",
        "174031.605000",
        "174032.605000",
        "174033.603000",
        "174034.603000",
        "174035.614000",
        "174036.608000",
        "174037.592000",
        "174038.581000",
        "174039.600000",
        "174040.604000",
        "174041.577000",
        "174042.604000",
        "174043.596000",
        "174044.580000",
        "174045.567000",
        "174046.598000",
        "174047.593000",
        "174048.608000",
        "174049.604000",
        "174050.602000",
        "174051.590000",
        "174052.648000",
        "174053.658000",
        "174054.598000",
        "174055.570000",
        "174056.591000",
        "174057.620000",
        "174058.627000",
        "174059.604000",
        "174100.600000",
        "174101.618000",
        "174102.592000",
        "174103.590000",
        "174104.591000",
        "174105.609000",
        "174106.590000",
        "174107.620000",
        "174108.609000",
        "174109.602000",
        "174110.599000",
        "174111.593000",
        "174112.618000",
        "174113.610000",
        "174114.610000",
        "174115.636000",
        "174116.587000",
        "174117.625000",
        "174118.600000",
        "174119.576000",
        "174120.616000",
        "174121.581000",
        "174122.575000",
        "174123.630000",
        "174124.625000",
        "174125.628000",
        "174126.589000",
        "174127.588000",
        "174128.576000",
        "174129.611000",
        "174130.608000",
        "174131.586000",
        "174132.632000",
        "174133.584000",
        "174134.566000",
        "174135.601000",
        "174136.583000",
        "174137.568000",
        "174138.620000",
        "174139.639000",
        "174140.614000",
        "174141.634000",
        "174142.607000",
        "174143.605000",
        "174144.586000",
        "174145.611000",
        "174146.583000",
        "174147.587000",
        "174148.593000",
        "174149.572000",
        "174150.633000",
        "174151.578000",
        "174152.600000",
        "174153.600000",
        "174154.603000",
        "174155.581000",
        "174156.601000",
        "174157.592000",
        "174158.591000",
        "174159.602000",
        "174200.587000",
        "174201.614000",
        "174202.551000",
        "174203.593000",
        "174204.599000",
        "174205.621000",
        "174206.588000",
        "174207.582000",
        "174208.581000",
        "174209.609000",
        "174210.638000",
        "174211.566000",
        "174212.561000",
        "174213.588000",
        "174214.593000",
        "174215.606000",
        "174216.564000",
        "174217.582000",
        "174218.598000",
        "174219.593000",
        "174220.586000",
        "174221.647000",
        "174222.598000",
        "174223.579000",
        "174224.603000",
        "174225.603000",
        "174226.601000",
        "174227.604000",
        "174228.612000",
        "174229.601000",
        "174230.622000"
      ],
      "InstanceCreationTime": [
        "173743.784000",
        "173744.607000",
        "173745.623000",
        "173746.587000",
        "173747.603000",
        "173748.604000",
        "173749.597000",
        "173750.608000",
        "173751.586000",
        "173752.582000",
        "173753.610000",
        "173754.667000",
        "173755.578000",
        "173756.627000",
        "173757.554000",
        "173758.620000",
        "173759.607000",
        "173800.631000",
        "173801.571000",
        "173802.604000",
        "173803.610000",
        "173804.614000",
        "173805.605000",
        "173806.582000",
        "173807.600000",
        "173808.574000",
        "173809.621000",
        "173810.589000",
        "173811.576000",
        "173812.587000",
        "173813.614000",
        "173814.629000",
        "173815.591000",
        "173816.592000",
        "173817.577000",
        "173818.581000",
        "173819.562000",
        "173820.583000",
        "173821.585000",
        "173822.558000",
        "173823.612000",
        "173824.556000",
        "173825.578000",
        "173826.598000",
        "173827.615000",
        "173828.607000",
        "173829.584000",
        "173830.603000",
        "173831.606000",
        "173832.639000",
        "173833.626000",
        "173834.624000",
        "173835.628000",
        "173836.605000",
        "173837.579000",
        "173838.607000",
        "173839.597000",
        "173840.544000",
        "173841.615000",
        "173842.627000",
        "173843.586000",
        "173844.576000",
        "173845.587000",
        "173846.571000",
        "173847.599000",
        "173848.580000",
        "173849.607000",
        "173850.591000",
        "173851.594000",
        "173852.567000",
        "173853.588000",
        "173854.581000",
        "173855.587000",
        "173856.598000",
        "173857.578000",
        "173858.598000",
        "173859.594000",
        "173900.594000",
        "173901.580000",
        "173902.590000",
        "173903.658000",
        "173904.595000",
        "173905.652000",
        "173906.586000",
        "173907.663000",
        "173908.586000",
        "173909.597000",
        "173910.578000",
        "173911.585000",
        "173912.589000",
        "173913.581000",
        "173914.582000",
        "173915.599000",
        "173916.590000",
        "173917.601000",
        "173918.607000",
        "173919.579000",
        "173920.601000",
        "173921.610000",
        "173922.605000",
        "173923.590000",
        "173924.583000",
        "173925.600000",
        "173926.608000",
        "173927.612000",
        "173928.628000",
        "173929.606000",
        "173930.601000",
        "173931.616000",
        "173932.589000",
        "173933.680000",
        "173934.609000",
        "173935.583000",
        "173936.585000",
        "173937.603000",
        "173938.590000",
        "173939.610000",
        "173940.610000",
        "173941.588000",
        "173942.612000",
        "173943.562000",
        "173944.635000",
        "173945.623000",
        "173946.602000",
        "173947.606000",
        "173948.598000",
        "173949.580000",
        "173950.622000",
        "173951.603000",
        "173952.599000",
        "173953.603000",
        "173954.609000",
        "173955.638000",
        "173956.625000",
        "173957.582000",
        "173958.596000",
        "173959.617000",
        "174000.607000",
        "174001.610000",
        "174002.609000",
        "174003.607000",
        "174004.584000",
        "174005.634000",
        "174006.602000",
        "174007.606000",
        "174008.601000",
        "174009.616000",
        "174010.567000",
        "174011.607000",
        "174012.605000",
        "174013.633000",
        "174014.585000",
        "174015.619000",
        "174016.592000",
        "174017.627000",
        "174018.593000",
        "174019.611000",
        "174020.599000",
        "174021.598000",
        "174022.603000",
        "174023.612000",
        "174024.595000",
        "174025.601000",
        "174026.598000",
        "174027.614000",
        "174028.576000",
        "174029.584000",
        "174030.574000",
        "174031.605000",
        "174032.605000",
        "174033.603000",
        "174034.603000",
        "174035.614000",
        "174036.608000",
        "174037.592000",
        "174038.581000",
        "174039.600000",
        "174040.604000",
        "174041.577000",
        "174042.604000",
        "174043.596000",
        "174044.580000",
        "174045.567000",
        "174046.598000",
        "174047.593000",
        "174048.608000",
        "174049.604000",
        "174050.602000",
        "174051.590000",
        "174052.648000",
        "174053.658000",
        "174054.598000",
        "174055.570000",
        "174056.591000",
        "174057.620000",
        "174058.627000",
        "174059.604000",
        "174100.600000",
        "174101.618000",
        "174102.592000",
        "174103.590000",
        "174104.591000",
        "174105.609000",
        "174106.590000",
        "174107.620000",
        "174108.609000",
        "174109.602000",
        "174110.599000",
        "174111.593000",
        "174112.618000",
        "174113.610000",
        "174114.610000",
        "174115.636000",
        "174116.587000",
        "174117.625000",
        "174118.600000",
        "174119.576000",
        "174120.616000",
        "174121.581000",
        "174122.575000",
        "174123.630000",
        "174124.625000",
        "174125.628000",
        "174126.589000",
        "174127.588000",
        "174128.576000",
        "174129.611000",
        "174130.608000",
        "174131.586000",
        "174132.632000",
        "174133.584000",
        "174134.566000",
        "174135.601000",
        "174136.583000",
        "174137.568000",
        "174138.620000",
        "174139.639000",
        "174140.614000",
        "174141.634000",
        "174142.607000",
        "174143.605000",
        "174144.586000",
        "174145.611000",
        "174146.583000",
        "174147.587000",
        "174148.593000",
        "174149.572000",
        "174150.633000",
        "174151.578000",
        "174152.600000",
        "174153.600000",
        "174154.603000",
        "174155.581000",
        "174156.601000",
        "174157.592000",
        "174158.591000",
        "174159.602000",
        "174200.587000",
        "174201.614000",
        "174202.551000",
        "174203.593000",
        "174204.599000",
        "174205.621000",
        "174206.588000",
        "174207.582000",
        "174208.581000",
        "174209.609000",
        "174210.638000",
        "174211.566000",
        "174212.561000",
        "174213.588000",
        "174214.593000",
        "174215.606000",
        "174216.564000",
        "174217.582000",
        "174218.598000",
        "174219.593000",
        "174220.586000",
        "174221.647000",
        "174222.598000",
        "174223.579000",
        "174224.603000",
        "174225.603000",
        "174226.601000",
        "174227.604000",
        "174228.612000",
        "174229.601000",
        "174230.622000"
      ],
      "InstanceNumber": [
        1,
        2,
        3,
        4,
        5,
        6,
        7,
        8,
        9,
        10,
        11,
        12,
        13,
        14,
        15,
        16,
        17,
        18,
        19,
        20,
        21,
        22,
        23,
        24,
        25,
        26,
        27,
        28,
        29,
        30,
        31,
        32,
        33,
        34,
        35,
        36,
        37,
        38,
        39,
        40,
        41,
        42,
        43,
        44,
        45,
        46,
        47,
        48,
        49,
        50,
        51,
        52,
        53,
        54,
        55,
        56,
        57,
        58,
        59,
        60,
        61,
        62,
        63,
        64,
        65,
        66,
        67,
        68,
        69,
        70,
        71,
        72,
        73,
        74,
        75,
        76,
        77,
        78,
        79,
        80,
        81,
        82,
        83,
        84,
        85,
        86,
        87,
        88,
        89,
        90,
        91,
        92,
        93,
        94,
        95,
        96,
        97,
        98,
        99,
        100,
        101,
        102,
        103,
        104,
        105,
        106,
        107,
        108,
        109,
        110,
        111,
        112,
        113,
        114,
        115,
        116,
        117,
        118,
        119,
        120,
        121,
        122,
        123,
        124,
        125,
        126,
        127,
        128,
        129,
        130,
        131,
        132,
        133,
        134,
        135,
        136,
        137,
        138,
        139,
        140,
        141,
        142,
        143,
        144,
        145,
        146,
        147,
        148,
        149,
        150,
        151,
        152,
        153,
        154,
        155,
        156,
        157,
        158,
        159,
        160,
        161,
        162,
        163,
        164,
        165,
        166,
        167,
        168,
        169,
        170,
        171,
        172,
        173,
        174,
        175,
        176,
        177,
        178,
        179,
        180,
        181,
        182,
        183,
        184,
        185,
        186,
        187,
        188,
        189,
        190,
        191,
        192,
        193,
        194,
        195,
        196,
        197,
        198,
