{
  "AcquisitionMatrixPE": 96,
  "AcquisitionNumber": 1,
  "BandwidthPerPixelPhaseEncode": 18.939,
  "BaseResolution": 96,
  "BodyPartExamined": "BRAIN",
  "ConsistencyInfo": "N4_VE11C_LATEST_20160120",
  "ConversionSoftware": "dcm2niix",
  "ConversionSoftwareVersion": "v1.0.20171215 (OpenJPEG build) GCC6.3.0",
  "DerivedVendorReportedEchoSpacing": 0.000550011,
  "DeviceSerialNumber": "66112",
  "DwellTime": 2.2e-06,
  "EchoTime": 0.033,
  "EchoTrainLength": 96,
  "EffectiveEchoSpacing": 0.000550011,
  "FlipAngle": 59,
  "ImageOrientationPatientDICOM": [
    0.999099,
    0.00120388,
    0.0424178,
    -0.000697488,
    0.999928,
    -0.0119511
  ],
  "ImageType": [
    "ORIGINAL",
    "PRIMARY",
    "FMRI",
    "NONE",
    "ND",
    "NORM",
    "MOSAIC"
  ],
  "InPlanePhaseEncodingDirectionDICOM": "COL",
  "InstitutionAddress": "Maynard_3_Hanover_NH_US_03755",
  "InstitutionName": "Dartmouth_College_-_PBS",
  "InstitutionalDepartmentName": "Department",
  "MRAcquisitionType": "2D",
  "MagneticFieldStrength": 3,
  "Manufacturer": "Siemens",
  "ManufacturersModelName": "Prisma",
  "Modality": "MR",
  "MultibandAccelerationFactor": 4,
  "PatientPosition": "HFS",
  "PercentPhaseFOV": 100,
  "PhaseEncodingDirection": "j-",
  "PhaseEncodingSteps": 96,
  "PhaseResolution": 1,
  "PixelBandwidth": 2365,
  "ProcedureStepDescription": "Gobbini_Matteo_1038_hyperface",
  "ProtocolName": "func_run-06_task-visualmemory",
  "PulseSequenceDetails": "%SiemensSeq%_ep2d_bold",
  "ReceiveCoilActiveElements": "HEA;HEP",
  "ReceiveCoilName": "Head_32",
  "ReconMatrixPE": 96,
  "RepetitionTime": 1,
  "SAR": 0.0411116,
  "ScanOptions": "FS",
  "ScanningSequence": "EP",
  "SequenceName": "_epfid2d1_96",
  "SequenceVariant": "SK",
  "SeriesDescription": "func_run-06_task-visualmemory",
  "SeriesNumber": 43,
  "ShimSetting": [
    4155,
    -7718,
    -7476,
    289,
    -30,
    -12,
    -109,
    70
  ],
  "SliceThickness": 2.5,
  "SliceTiming": [
    0.735,
    0,
    0.49,
    0.0825,
    0.5725,
    0.1625,
    0.6525,
    0.3275,
    0.8175,
    0.4075,
    0.8975,
    0.245,
    0.735,
    0,
    0.49,
    0.0825,
    0.5725,
    0.1625,
    0.6525,
    0.3275,
    0.8175,
    0.4075,
    0.8975,
    0.245,
    0.735,
    0,
    0.49,
    0.0825,
    0.5725,
    0.1625,
    0.6525,
    0.3275,
    0.8175,
    0.4075,
    0.8975,
    0.245,
    0.735,
    0,
    0.49,
    0.0825,
    0.5725,
    0.1625,
    0.6525,
    0.3275,
    0.8175,
    0.4075,
    0.8975,
    0.245
  ],
  "SoftwareVersions": "syngo_MR_E11",
  "SpacingBetweenSlices": 2.5,
  "StationName": "AWP66112",
  "TotalReadoutTime": 0.0522511,
  "TxRefAmp": 229.09,
  "time": {
    "samples": {
      "AcquisitionNumber": [
        1,
        2,
        3,
        4,
        5,
        6,
        7,
        8,
        9,
        10,
        11,
        12,
        13,
        14,
        15,
        16,
        17,
        18,
        19,
        20,
        21,
        22,
        23,
        24,
        25,
        26,
        27,
        28,
        29,
        30,
        31,
        32,
        33,
        34,
        35,
        36,
        37,
        38,
        39,
        40,
        41,
        42,
        43,
        44,
        45,
        46,
        47,
        48,
        49,
        50,
        51,
        52,
        53,
        54,
        55,
        56,
        57,
        58,
        59,
        60,
        61,
        62,
        63,
        64,
        65,
        66,
        67,
        68,
        69,
        70,
        71,
        72,
        73,
        74,
        75,
        76,
        77,
        78,
        79,
        80,
        81,
        82,
        83,
        84,
        85,
        86,
        87,
        88,
        89,
        90,
        91,
        92,
        93,
        94,
        95,
        96,
        97,
        98,
        99,
        100,
        101,
        102,
        103,
        104,
        105,
        106,
        107,
        108,
        109,
        110,
        111,
        112,
        113,
        114,
        115,
        116,
        117,
        118,
        119,
        120,
        121,
        122,
        123,
        124,
        125,
        126,
        127,
        128,
        129,
        130,
        131,
        132,
        133,
        134,
        135,
        136,
        137,
        138,
        139,
        140,
        141,
        142,
        143,
        144,
        145,
        146,
        147,
        148,
        149,
        150,
        151,
        152,
        153,
        154,
        155,
        156,
        157,
        158,
        159,
        160,
        161,
        162,
        163,
        164,
        165,
        166,
        167,
        168,
        169,
        170,
        171,
        172,
        173,
        174,
        175,
        176,
        177,
        178,
        179,
        180,
        181,
        182,
        183,
        184,
        185,
        186,
        187,
        188,
        189,
        190,
        191,
        192,
        193,
        194,
        195,
        196,
        197,
        198,
        199,
        200,
        201,
        202,
        203,
        204,
        205,
        206,
        207,
        208,
        209,
        210,
        211,
        212,
        213,
        214,
        215,
        216,
        217,
        218,
        219,
        220,
        221,
        222,
        223,
        224,
        225,
        226,
        227,
        228,
        229,
        230,
        231,
        232,
        233,
        234,
        235,
        236,
        237,
        238,
        239,
        240,
        241,
        242,
        243,
        244,
        245,
        246,
        247,
        248,
        249,
        250,
        251,
        252,
        253,
        254,
        255,
        256,
        257,
        258,
        259,
        260,
        261,
        262,
        263,
        264,
        265,
        266,
        267,
        268,
        269,
        270,
        271,
        272,
        273,
        274,
        275,
        276,
        277,
        278,
        279,
        280,
        281,
        282,
        283,
        284,
        285,
        286,
        287,
        288
      ],
      "AcquisitionTime": [
        "103615.355000",
        "103616.355000",
        "103617.355000",
        "103618.355000",
        "103619.355000",
        "103620.355000",
        "103621.355000",
        "103622.355000",
        "103623.355000",
        "103624.355000",
        "103625.355000",
        "103626.355000",
        "103627.355000",
        "103628.355000",
        "103629.355000",
        "103630.355000",
        "103631.355000",
        "103632.355000",
        "103633.355000",
        "103634.355000",
        "103635.355000",
        "103636.355000",
        "103637.355000",
        "103638.355000",
        "103639.355000",
        "103640.355000",
        "103641.355000",
        "103642.355000",
        "103643.355000",
        "103644.355000",
        "103645.355000",
        "103646.355000",
        "103647.355000",
        "103648.355000",
        "103649.355000",
        "103650.355000",
        "103651.355000",
        "103652.355000",
        "103653.355000",
        "103654.355000",
        "103655.355000",
        "103656.355000",
        "103657.355000",
        "103658.355000",
        "103659.355000",
        "103700.355000",
        "103701.355000",
        "103702.355000",
        "103703.355000",
        "103704.355000",
        "103705.355000",
        "103706.355000",
        "103707.355000",
        "103708.355000",
        "103709.355000",
        "103710.355000",
        "103711.355000",
        "103712.355000",
        "103713.355000",
        "103714.355000",
        "103715.355000",
        "103716.355000",
        "103717.355000",
        "103718.355000",
        "103719.355000",
        "103720.355000",
        "103721.355000",
        "103722.355000",
        "103723.355000",
        "103724.355000",
        "103725.355000",
        "103726.355000",
        "103727.355000",
        "103728.355000",
        "103729.355000",
        "103730.355000",
        "103731.355000",
        "103732.355000",
        "103733.355000",
        "103734.355000",
        "103735.355000",
        "103736.355000",
        "103737.355000",
        "103738.355000",
        "103739.355000",
        "103740.355000",
        "103741.355000",
        "103742.355000",
        "103743.355000",
        "103744.355000",
        "103745.355000",
        "103746.355000",
        "103747.355000",
        "103748.355000",
        "103749.355000",
        "103750.355000",
        "103751.355000",
        "103752.355000",
        "103753.355000",
        "103754.355000",
        "103755.355000",
        "103756.355000",
        "103757.355000",
        "103758.355000",
        "103759.355000",
        "103800.355000",
        "103801.355000",
        "103802.355000",
        "103803.355000",
        "103804.355000",
        "103805.355000",
        "103806.355000",
        "103807.355000",
        "103808.355000",
        "103809.355000",
        "103810.355000",
        "103811.355000",
        "103812.355000",
        "103813.355000",
        "103814.355000",
        "103815.355000",
        "103816.355000",
        "103817.355000",
        "103818.355000",
        "103819.355000",
        "103820.355000",
        "103821.355000",
        "103822.355000",
        "103823.355000",
        "103824.355000",
        "103825.355000",
        "103826.355000",
        "103827.355000",
        "103828.355000",
        "103829.355000",
        "103830.355000",
        "103831.355000",
        "103832.355000",
        "103833.355000",
        "103834.355000",
        "103835.355000",
        "103836.355000",
        "103837.355000",
        "103838.355000",
        "103839.355000",
        "103840.355000",
        "103841.355000",
        "103842.355000",
        "103843.355000",
        "103844.355000",
        "103845.355000",
        "103846.355000",
        "103847.355000",
        "103848.355000",
        "103849.355000",
        "103850.355000",
        "103851.355000",
        "103852.355000",
        "103853.355000",
        "103854.355000",
        "103855.355000",
        "103856.355000",
        "103857.355000",
        "103858.355000",
        "103859.355000",
        "103900.355000",
        "103901.355000",
        "103902.355000",
        "103903.355000",
        "103904.355000",
        "103905.355000",
        "103906.355000",
        "103907.355000",
        "103908.355000",
        "103909.355000",
        "103910.355000",
        "103911.355000",
        "103912.355000",
        "103913.355000",
        "103914.355000",
        "103915.355000",
        "103916.355000",
        "103917.355000",
        "103918.355000",
        "103919.355000",
        "103920.355000",
        "103921.355000",
        "103922.355000",
        "103923.355000",
        "103924.355000",
        "103925.355000",
        "103926.355000",
        "103927.355000",
        "103928.355000",
        "103929.355000",
        "103930.355000",
        "103931.355000",
        "103932.355000",
        "103933.355000",
        "103934.355000",
        "103935.355000",
        "103936.355000",
        "103937.355000",
        "103938.355000",
        "103939.355000",
        "103940.355000",
        "103941.355000",
        "103942.355000",
        "103943.355000",
        "103944.355000",
        "103945.355000",
        "103946.355000",
        "103947.355000",
        "103948.355000",
        "103949.355000",
        "103950.355000",
        "103951.355000",
        "103952.355000",
        "103953.355000",
        "103954.355000",
        "103955.355000",
        "103956.355000",
        "103957.355000",
        "103958.355000",
        "103959.355000",
        "104000.355000",
        "104001.355000",
        "104002.355000",
        "104003.355000",
        "104004.355000",
        "104005.355000",
        "104006.355000",
        "104007.355000",
        "104008.355000",
        "104009.355000",
        "104010.355000",
        "104011.355000",
        "104012.355000",
        "104013.355000",
        "104014.355000",
        "104015.355000",
        "104016.355000",
        "104017.355000",
        "104018.355000",
        "104019.355000",
        "104020.355000",
        "104021.355000",
        "104022.355000",
        "104023.355000",
        "104024.355000",
        "104025.355000",
        "104026.355000",
        "104027.355000",
        "104028.355000",
        "104029.355000",
        "104030.355000",
        "104031.355000",
        "104032.355000",
        "104033.355000",
        "104034.355000",
        "104035.355000",
        "104036.355000",
        "104037.355000",
        "104038.355000",
        "104039.355000",
        "104040.355000",
        "104041.355000",
        "104042.355000",
        "104043.355000",
        "104044.355000",
        "104045.355000",
        "104046.355000",
        "104047.355000",
        "104048.355000",
        "104049.355000",
        "104050.355000",
        "104051.355000",
        "104052.355000",
        "104053.355000",
        "104054.355000",
        "104055.355000",
        "104056.355000",
        "104057.355000",
        "104058.355000",
        "104059.355000",
        "104100.355000",
        "104101.355000",
        "104102.355000"
      ],
      "ContentTime": [
        "103616.196000",
        "103617.026000",
        "103618.007000",
        "103618.985000",
        "103620.013000",
        "103621.023000",
        "103621.989000",
        "103622.997000",
        "103623.987000",
        "103624.998000",
        "103626.018000",
        "103626.997000",
        "103627.972000",
        "103628.991000",
        "103629.997000",
        "103630.997000",
        "103632.042000",
        "103632.981000",
        "103634.037000",
        "103635.065000",
        "103636.010000",
        "103636.981000",
        "103638.016000",
        "103639.037000",
        "103640.054000",
        "103641.035000",
        "103641.995000",
        "103643.040000",
        "103643.990000",
        "103645.005000",
        "103646.000000",
        "103646.991000",
        "103648.008000",
        "103649.037000",
        "103650.010000",
        "103651.019000",
        "103651.989000",
        "103653.011000",
        "103653.985000",
        "103655.000000",
        "103655.994000",
        "103657.001000",
        "103657.989000",
        "103658.982000",
        "103700.001000",
        "103700.998000",
        "103701.986000",
        "103703.001000",
        "103704.000000",
        "103704.968000",
        "103706.002000",
        "103706.992000",
        "103707.995000",
        "103709.003000",
        "103710.004000",
        "103710.990000",
        "103711.995000",
        "103712.997000",
        "103714.004000",
        "103715.021000",
        "103716.018000",
        "103716.998000",
        "103717.992000",
        "103719.031000",
        "103720.014000",
        "103720.998000",
        "103721.977000",
        "103722.992000",
        "103723.997000",
        "103724.997000",
        "103725.996000",
        "103727.012000",
        "103728.004000",
        "103728.988000",
        "103730.011000",
        "103730.978000",
        "103731.979000",
        "103733.023000",
        "103734.007000",
        "103734.995000",
        "103735.982000",
        "103736.990000",
        "103738.010000",
        "103738.995000",
        "103739.992000",
        "103740.989000",
        "103741.993000",
        "103742.998000",
        "103743.983000",
        "103744.998000",
        "103745.969000",
        "103746.969000",
        "103748.016000",
        "103749.020000",
        "103750.016000",
        "103751.009000",
        "103752.008000",
        "103753.020000",
        "103753.971000",
        "103755.044000",
        "103755.972000",
        "103757.003000",
        "103758.027000",
        "103758.990000",
        "103800.019000",
        "103801.043000",
        "103802.023000",
        "103803.014000",
        "103804.050000",
        "103804.997000",
        "103806.017000",
        "103807.031000",
        "103808.009000",
        "103808.998000",
        "103810.012000",
        "103810.994000",
        "103812.004000",
        "103812.989000",
        "103814.010000",
        "103815.003000",
        "103816.045000",
        "103817.025000",
        "103818.018000",
        "103819.047000",
        "103819.989000",
        "103820.985000",
        "103822.016000",
        "103822.991000",
        "103824.042000",
        "103825.053000",
        "103826.012000",
        "103827.055000",
        "103828.065000",
        "103828.996000",
        "103830.006000",
        "103831.029000",
        "103832.024000",
        "103833.042000",
        "103834.048000",
        "103834.989000",
        "103835.994000",
        "103837.014000",
        "103837.977000",
        "103839.037000",
        "103840.026000",
        "103841.003000",
        "103842.003000",
        "103843.014000",
        "103844.003000",
        "103844.985000",
        "103845.995000",
        "103847.000000",
        "103848.007000",
        "103848.992000",
        "103849.998000",
        "103850.987000",
        "103852.006000",
        "103853.000000",
        "103854.051000",
        "103855.036000",
        "103855.976000",
        "103856.974000",
        "103858.002000",
        "103858.980000",
        "103900.027000",
        "103900.984000",
        "103901.991000",
        "103903.007000",
        "103904.014000",
        "103905.007000",
        "103906.030000",
        "103907.008000",
        "103908.010000",
        "103909.004000",
        "103910.009000",
        "103910.994000",
        "103911.978000",
        "103913.044000",
        "103914.058000",
        "103915.003000",
        "103916.015000",
        "103917.012000",
        "103918.011000",
        "103919.020000",
        "103920.063000",
        "103920.993000",
        "103922.036000",
        "103923.027000",
        "103923.998000",
        "103925.005000",
        "103926.049000",
        "103927.068000",
        "103928.025000",
        "103929.000000",
        "103929.995000",
        "103931.061000",
        "103932.014000",
        "103933.038000",
        "103934.017000",
        "103935.010000",
        "103935.998000",
        "103937.044000",
        "103937.995000",
        "103939.027000",
        "103940.018000",
        "103940.981000",
        "103941.974000",
        "103943.027000",
        "103943.998000",
        "103945.000000",
        "103946.017000",
        "103947.044000",
        "103948.007000",
        "103949.006000",
        "103950.005000",
        "103951.049000",
        "103951.998000",
        "103952.991000",
        "103954.007000",
        "103955.016000",
        "103955.995000",
        "103956.991000",
        "103958.003000",
        "103958.992000",
        "104000.015000",
        "104001.070000",
        "104002.017000",
        "104003.022000",
        "104004.008000",
        "104005.000000",
        "104006.010000",
        "104006.993000",
        "104007.991000",
        "104009.016000",
        "104010.012000",
        "104011.021000",
        "104012.001000",
        "104013.009000",
        "104014.020000",
        "104015.016000",
        "104015.997000",
        "104017.017000",
        "104017.988000",
        "104019.010000",
        "104020.018000",
        "104021.010000",
        "104022.009000",
        "104023.021000",
        "104024.050000",
        "104024.998000",
        "104025.996000",
        "104027.026000",
        "104028.039000",
        "104029.009000",
        "104029.959000",
        "104030.987000",
        "104032.018000",
        "104033.054000",
        "104033.989000",
        "104035.004000",
        "104036.070000",
        "104037.003000",
        "104038.047000",
        "104039.068000",
        "104040.019000",
        "104041.018000",
        "104041.995000",
        "104043.011000",
        "104044.024000",
        "104045.008000",
        "104046.002000",
        "104047.021000",
        "104048.035000",
        "104049.035000",
        "104050.058000",
        "104051.002000",
        "104052.013000",
        "104052.995000",
        "104054.036000",
        "104055.011000",
        "104056.007000",
        "104057.034000",
        "104058.058000",
        "104059.019000",
        "104100.004000",
        "104100.989000",
        "104102.012000",
        "104103.040000"
      ],
      "InstanceCreationTime": [
        "103616.196000",
        "103617.026000",
        "103618.007000",
        "103618.985000",
        "103620.013000",
        "103621.023000",
        "103621.989000",
        "103622.997000",
        "103623.987000",
        "103624.998000",
        "103626.018000",
        "103626.997000",
        "103627.972000",
        "103628.991000",
        "103629.997000",
        "103630.997000",
        "103632.042000",
        "103632.981000",
        "103634.037000",
        "103635.065000",
        "103636.010000",
        "103636.981000",
        "103638.016000",
        "103639.037000",
        "103640.054000",
        "103641.035000",
        "103641.995000",
        "103643.040000",
        "103643.990000",
        "103645.005000",
        "103646.000000",
        "103646.991000",
        "103648.008000",
        "103649.037000",
        "103650.010000",
        "103651.019000",
        "103651.989000",
        "103653.011000",
        "103653.985000",
        "103655.000000",
        "103655.994000",
        "103657.001000",
        "103657.989000",
        "103658.982000",
        "103700.001000",
        "103700.998000",
        "103701.986000",
        "103703.001000",
        "103704.000000",
        "103704.968000",
        "103706.002000",
        "103706.992000",
        "103707.995000",
        "103709.003000",
        "103710.004000",
        "103710.990000",
        "103711.995000",
        "103712.997000",
        "103714.004000",
        "103715.021000",
        "103716.018000",
        "103716.998000",
        "103717.992000",
        "103719.031000",
        "103720.014000",
        "103720.998000",
        "103721.977000",
        "103722.992000",
        "103723.997000",
        "103724.997000",
        "103725.996000",
        "103727.012000",
        "103728.004000",
        "103728.988000",
        "103730.011000",
        "103730.978000",
        "103731.979000",
        "103733.023000",
        "103734.007000",
        "103734.995000",
        "103735.982000",
        "103736.990000",
        "103738.010000",
        "103738.995000",
        "103739.992000",
        "103740.989000",
        "103741.993000",
        "103742.998000",
        "103743.983000",
        "103744.998000",
        "103745.969000",
        "103746.969000",
        "103748.016000",
        "103749.020000",
        "103750.016000",
        "103751.009000",
        "103752.008000",
        "103753.020000",
        "103753.971000",
        "103755.044000",
        "103755.972000",
        "103757.003000",
        "103758.027000",
        "103758.990000",
        "103800.019000",
        "103801.043000",
        "103802.023000",
        "103803.014000",
        "103804.050000",
        "103804.997000",
        "103806.017000",
        "103807.031000",
        "103808.009000",
        "103808.998000",
        "103810.012000",
        "103810.994000",
        "103812.004000",
        "103812.989000",
        "103814.010000",
        "103815.003000",
        "103816.045000",
        "103817.025000",
        "103818.018000",
        "103819.047000",
        "103819.989000",
        "103820.985000",
        "103822.016000",
        "103822.991000",
        "103824.042000",
        "103825.053000",
        "103826.012000",
        "103827.055000",
        "103828.065000",
        "103828.996000",
        "103830.006000",
        "103831.029000",
        "103832.024000",
        "103833.042000",
        "103834.048000",
        "103834.989000",
        "103835.994000",
        "103837.014000",
        "103837.977000",
        "103839.037000",
        "103840.026000",
        "103841.003000",
        "103842.003000",
        "103843.014000",
        "103844.003000",
        "103844.985000",
        "103845.995000",
        "103847.000000",
        "103848.007000",
        "103848.992000",
        "103849.998000",
        "103850.987000",
        "103852.006000",
        "103853.000000",
        "103854.051000",
        "103855.036000",
        "103855.976000",
        "103856.974000",
        "103858.002000",
        "103858.980000",
        "103900.027000",
        "103900.984000",
        "103901.991000",
        "103903.007000",
        "103904.014000",
        "103905.007000",
        "103906.030000",
        "103907.008000",
        "103908.010000",
        "103909.004000",
        "103910.009000",
        "103910.994000",
        "103911.978000",
        "103913.044000",
        "103914.058000",
        "103915.003000",
        "103916.015000",
        "103917.012000",
        "103918.011000",
        "103919.020000",
        "103920.063000",
        "103920.993000",
        "103922.036000",
        "103923.027000",
        "103923.998000",
        "103925.005000",
        "103926.049000",
        "103927.068000",
        "103928.025000",
        "103929.000000",
        "103929.995000",
        "103931.061000",
        "103932.014000",
        "103933.038000",
        "103934.017000",
        "103935.010000",
        "103935.998000",
        "103937.044000",
        "103937.995000",
        "103939.027000",
        "103940.018000",
        "103940.981000",
        "103941.974000",
        "103943.027000",
        "103943.998000",
        "103945.000000",
        "103946.017000",
        "103947.044000",
        "103948.007000",
        "103949.006000",
        "103950.005000",
        "103951.049000",
        "103951.998000",
        "103952.991000",
        "103954.007000",
        "103955.016000",
        "103955.995000",
        "103956.991000",
        "103958.003000",
        "103958.992000",
        "104000.015000",
        "104001.070000",
        "104002.017000",
        "104003.022000",
        "104004.008000",
        "104005.000000",
        "104006.010000",
        "104006.993000",
        "104007.991000",
        "104009.016000",
        "104010.012000",
        "104011.021000",
        "104012.001000",
        "104013.009000",
        "104014.020000",
        "104015.016000",
        "104015.997000",
        "104017.017000",
        "104017.988000",
        "104019.010000",
        "104020.018000",
        "104021.010000",
        "104022.009000",
        "104023.021000",
        "104024.050000",
        "104024.998000",
        "104025.996000",
        "104027.026000",
        "104028.039000",
        "104029.009000",
        "104029.959000",
        "104030.987000",
        "104032.018000",
        "104033.054000",
        "104033.989000",
        "104035.004000",
        "104036.070000",
        "104037.003000",
        "104038.047000",
        "104039.068000",
        "104040.019000",
        "104041.018000",
        "104041.995000",
        "104043.011000",
        "104044.024000",
        "104045.008000",
        "104046.002000",
        "104047.021000",
        "104048.035000",
        "104049.035000",
        "104050.058000",
        "104051.002000",
        "104052.013000",
        "104052.995000",
        "104054.036000",
        "104055.011000",
        "104056.007000",
        "104057.034000",
        "104058.058000",
        "104059.019000",
        "104100.004000",
        "104100.989000",
        "104102.012000",
        "104103.040000"
      ],
      "InstanceNumber": [
        1,
        2,
        3,
        4,
        5,
        6,
        7,
        8,
        9,
        10,
        11,
        12,
        13,
        14,
        15,
        16,
        17,
        18,
        19,
        20,
        21,
        22,
        23,
        24,
        25,
        26,
        27,
        28,
        29,
        30,
        31,
        32,
        33,
        34,
        35,
        36,
        37,
        38,
        39,
        40,
        41,
        42,
        43,
        44,
        45,
        46,
        47,
        48,
        49,
        50,
        51,
        52,
        53,
        54,
        55,
        56,
        57,
        58,
        59,
        60,
        61,
        62,
        63,
        64,
        65,
        66,
        67,
        68,
        69,
        70,
        71,
        72,
        73,
        74,
        75,
        76,
        77,
        78,
        79,
        80,
        81,
        82,
        83,
        84,
        85,
        86,
        87,
        88,
        89,
        90,
        91,
        92,
        93,
        94,
        95,
        96,
        97,
        98,
        99,
        100,
        101,
        102,
        103,
        104,
        105,
        106,
        107,
        108,
        109,
        110,
        111,
        112,
        113,
        114,
        115,
        116,
        117,
        118,
        119,
        120,
        121,
        122,
        123,
        124,
        125,
        126,
        127,
        128,
        129,
        130,
        131,
        132,
        133,
        134,
        135,
        136,
        137,
        138,
        139,
        140,
        141,
        142,
        143,
        144,
        145,
        146,
        147,
        148,
        149,
        150,
        151,
        152,
        153,
        154,
        155,
