{
  "AcquisitionMatrixPE": 96,
  "AcquisitionNumber": 1,
  "BandwidthPerPixelPhaseEncode": 18.939,
  "BaseResolution": 96,
  "BodyPartExamined": "BRAIN",
  "ConsistencyInfo": "N4_VE11C_LATEST_20160120",
  "ConversionSoftware": "dcm2niix",
  "ConversionSoftwareVersion": "v1.0.20171215 (OpenJPEG build) GCC6.3.0",
  "DerivedVendorReportedEchoSpacing": 0.000550011,
  "DeviceSerialNumber": "66112",
  "DwellTime": 2.2e-06,
  "EchoTime": 0.033,
  "EchoTrainLength": 96,
  "EffectiveEchoSpacing": 0.000550011,
  "FlipAngle": 59,
  "ImageOrientationPatientDICOM": [
    0.999099,
    0.00120388,
    0.0424178,
    -0.000697488,
    0.999928,
    -0.0119511
  ],
  "ImageType": [
    "ORIGINAL",
    "PRIMARY",
    "FMRI",
    "NONE",
    "ND",
    "NORM",
    "MOSAIC"
  ],
  "InPlanePhaseEncodingDirectionDICOM": "COL",
  "InstitutionAddress": "Maynard_3_Hanover_NH_US_03755",
  "InstitutionName": "Dartmouth_College_-_PBS",
  "InstitutionalDepartmentName": "Department",
  "MRAcquisitionType": "2D",
  "MagneticFieldStrength": 3,
  "Manufacturer": "Siemens",
  "ManufacturersModelName": "Prisma",
  "Modality": "MR",
  "MultibandAccelerationFactor": 4,
  "PartialFourier": 1,
  "PatientPosition": "HFS",
  "PercentPhaseFOV": 100,
  "PhaseEncodingDirection": "j-",
  "PhaseEncodingSteps": 96,
  "PhaseResolution": 1,
  "PixelBandwidth": 2365,
  "ProcedureStepDescription": "Gobbini_Matteo_1038_hyperface",
  "ProtocolName": "func_run-01_task-localizer",
  "PulseSequenceDetails": "%SiemensSeq%_ep2d_bold",
  "ReceiveCoilActiveElements": "HEA;HEP",
  "ReceiveCoilName": "Head_32",
  "ReconMatrixPE": 96,
  "RepetitionTime": 1,
  "SAR": 0.0410133,
  "ScanOptions": "FS",
  "ScanningSequence": "EP",
  "SequenceName": "_epfid2d1_96",
  "SequenceVariant": "SK",
  "SeriesDescription": "func_run-01_task-localizer",
  "SeriesNumber": 8,
  "ShimSetting": [
    4155,
    -7718,
    -7476,
    289,
    -30,
    -12,
    -109,
    70
  ],
  "SliceThickness": 2.5,
  "SliceTiming": [
    0.735,
    0,
    0.49,
    0.0825,
    0.5725,
    0.1625,
    0.6525,
    0.3275,
    0.8175,
    0.4075,
    0.8975,
    0.245,
    0.735,
    0,
    0.49,
    0.0825,
    0.5725,
    0.1625,
    0.6525,
    0.3275,
    0.8175,
    0.4075,
    0.8975,
    0.245,
    0.735,
    0,
    0.49,
    0.0825,
    0.5725,
    0.1625,
    0.6525,
    0.3275,
    0.8175,
    0.4075,
    0.8975,
    0.245,
    0.735,
    0,
    0.49,
    0.0825,
    0.5725,
    0.1625,
    0.6525,
    0.3275,
    0.8175,
    0.4075,
    0.8975,
    0.245
  ],
  "SoftwareVersions": "syngo_MR_E11",
  "SpacingBetweenSlices": 2.5,
  "StationName": "AWP66112",
  "TotalReadoutTime": 0.0522511,
  "TxRefAmp": 229.09,
  "time": {
    "samples": {
      "AcquisitionNumber": [
        1,
        2,
        3,
        4,
        5,
        6,
        7,
        8,
        9,
        10,
        11,
        12,
        13,
        14,
        15,
        16,
        17,
        18,
        19,
        20,
        21,
        22,
        23,
        24,
        25,
        26,
        27,
        28,
        29,
        30,
        31,
        32,
        33,
        34,
        35,
        36,
        37,
        38,
        39,
        40,
        41,
        42,
        43,
        44,
        45,
        46,
        47,
        48,
        49,
        50,
        51,
        52,
        53,
        54,
        55,
        56,
        57,
        58,
        59,
        60,
        61,
        62,
        63,
        64,
        65,
        66,
        67,
        68,
        69,
        70,
        71,
        72,
        73,
        74,
        75,
        76,
        77,
        78,
        79,
        80,
        81,
        82,
        83,
        84,
        85,
        86,
        87,
        88,
        89,
        90,
        91,
        92,
        93,
        94,
        95,
        96,
        97,
        98,
        99,
        100,
        101,
        102,
        103,
        104,
        105,
        106,
        107,
        108,
        109,
        110,
        111,
        112,
        113,
        114,
        115,
        116,
        117,
        118,
        119,
        120,
        121,
        122,
        123,
        124,
        125,
        126,
        127,
        128,
        129,
        130,
        131,
        132,
        133,
        134,
        135,
        136,
        137,
        138,
        139,
        140,
        141,
        142,
        143,
        144,
        145,
        146,
        147,
        148,
        149,
        150,
        151,
        152,
        153,
        154,
        155,
        156,
        157,
        158,
        159,
        160,
        161,
        162,
        163,
        164,
        165,
        166,
        167,
        168,
        169,
        170,
        171,
        172,
        173,
        174,
        175,
        176,
        177,
        178,
        179,
        180,
        181,
        182,
        183,
        184,
        185,
        186,
        187,
        188,
        189,
        190,
        191,
        192,
        193,
        194,
        195,
        196,
        197,
        198,
        199,
        200,
        201,
        202,
        203,
        204,
        205,
        206,
        207,
        208,
        209,
        210,
        211,
        212,
        213,
        214,
        215,
        216,
        217,
        218,
        219,
        220,
        221,
        222,
        223,
        224,
        225,
        226,
        227,
        228,
        229,
        230,
        231,
        232,
        233,
        234,
        235,
        236
      ],
      "AcquisitionTime": [
        "101104.345000",
        "101105.345000",
        "101106.345000",
        "101107.345000",
        "101108.345000",
        "101109.345000",
        "101110.345000",
        "101111.345000",
        "101112.345000",
        "101113.345000",
        "101114.345000",
        "101115.345000",
        "101116.345000",
        "101117.345000",
        "101118.345000",
        "101119.345000",
        "101120.345000",
        "101121.345000",
        "101122.345000",
        "101123.345000",
        "101124.345000",
        "101125.345000",
        "101126.345000",
        "101127.345000",
        "101128.345000",
        "101129.345000",
        "101130.345000",
        "101131.345000",
        "101132.345000",
        "101133.345000",
        "101134.345000",
        "101135.345000",
        "101136.345000",
        "101137.345000",
        "101138.345000",
        "101139.345000",
        "101140.345000",
        "101141.345000",
        "101142.345000",
        "101143.345000",
        "101144.345000",
        "101145.345000",
        "101146.345000",
        "101147.345000",
        "101148.345000",
        "101149.345000",
        "101150.345000",
        "101151.345000",
        "101152.345000",
        "101153.345000",
        "101154.345000",
        "101155.345000",
        "101156.345000",
        "101157.345000",
        "101158.345000",
        "101159.345000",
        "101200.345000",
        "101201.345000",
        "101202.345000",
        "101203.345000",
        "101204.345000",
        "101205.345000",
        "101206.345000",
        "101207.345000",
        "101208.345000",
        "101209.345000",
        "101210.345000",
        "101211.345000",
        "101212.345000",
        "101213.345000",
        "101214.345000",
        "101215.345000",
        "101216.345000",
        "101217.345000",
        "101218.345000",
        "101219.345000",
        "101220.345000",
        "101221.345000",
        "101222.345000",
        "101223.345000",
        "101224.345000",
        "101225.345000",
        "101226.345000",
        "101227.345000",
        "101228.345000",
        "101229.345000",
        "101230.345000",
        "101231.345000",
        "101232.345000",
        "101233.345000",
        "101234.345000",
        "101235.345000",
        "101236.345000",
        "101237.345000",
        "101238.345000",
        "101239.345000",
        "101240.345000",
        "101241.345000",
        "101242.345000",
        "101243.345000",
        "101244.345000",
        "101245.345000",
        "101246.345000",
        "101247.345000",
        "101248.345000",
        "101249.345000",
        "101250.345000",
        "101251.345000",
        "101252.345000",
        "101253.345000",
        "101254.345000",
        "101255.345000",
        "101256.345000",
        "101257.345000",
        "101258.345000",
        "101259.345000",
        "101300.345000",
        "101301.345000",
        "101302.345000",
        "101303.345000",
        "101304.345000",
        "101305.345000",
        "101306.345000",
        "101307.345000",
        "101308.345000",
        "101309.345000",
        "101310.345000",
        "101311.345000",
        "101312.345000",
        "101313.345000",
        "101314.345000",
        "101315.345000",
        "101316.345000",
        "101317.345000",
        "101318.345000",
        "101319.345000",
        "101320.345000",
        "101321.345000",
        "101322.345000",
        "101323.345000",
        "101324.345000",
        "101325.345000",
        "101326.345000",
        "101327.345000",
        "101328.345000",
        "101329.345000",
        "101330.345000",
        "101331.345000",
        "101332.345000",
        "101333.345000",
        "101334.345000",
        "101335.345000",
        "101336.345000",
        "101337.345000",
        "101338.345000",
        "101339.345000",
        "101340.345000",
        "101341.345000",
        "101342.345000",
        "101343.345000",
        "101344.345000",
        "101345.345000",
        "101346.345000",
        "101347.345000",
        "101348.345000",
        "101349.345000",
        "101350.345000",
        "101351.345000",
        "101352.345000",
        "101353.345000",
        "101354.345000",
        "101355.345000",
        "101356.345000",
        "101357.345000",
        "101358.345000",
        "101359.345000",
        "101400.345000",
        "101401.345000",
        "101402.345000",
        "101403.345000",
        "101404.345000",
        "101405.345000",
        "101406.345000",
        "101407.345000",
        "101408.345000",
        "101409.345000",
        "101410.345000",
        "101411.345000",
        "101412.345000",
        "101413.345000",
        "101414.345000",
        "101415.345000",
        "101416.345000",
        "101417.345000",
        "101418.345000",
        "101419.345000",
        "101420.345000",
        "101421.345000",
        "101422.345000",
        "101423.345000",
        "101424.345000",
        "101425.345000",
        "101426.345000",
        "101427.345000",
        "101428.345000",
        "101429.345000",
        "101430.345000",
        "101431.345000",
        "101432.345000",
        "101433.345000",
        "101434.345000",
        "101435.345000",
        "101436.345000",
        "101437.345000",
        "101438.345000",
        "101439.345000",
        "101440.345000",
        "101441.345000",
        "101442.345000",
        "101443.345000",
        "101444.345000",
        "101445.345000",
        "101446.345000",
        "101447.345000",
        "101448.345000",
        "101449.345000",
        "101450.345000",
        "101451.345000",
        "101452.345000",
        "101453.345000",
        "101454.345000",
        "101455.345000",
        "101456.345000",
        "101457.345000",
        "101458.345000",
        "101459.345000"
      ],
      "ContentTime": [
        "101106.109000",
        "101106.933000",
        "101107.950000",
        "101108.947000",
        "101109.932000",
        "101110.936000",
        "101111.943000",
        "101112.975000",
        "101113.982000",
        "101114.969000",
        "101115.990000",
        "101116.940000",
        "101117.903000",
        "101118.910000",
        "101119.933000",
        "101120.968000",
        "101121.921000",
        "101122.907000",
        "101123.954000",
        "101124.925000",
        "101125.886000",
        "101126.912000",
        "101127.925000",
        "101128.957000",
        "101129.927000",
        "101130.985000",
        "101131.904000",
        "101132.927000",
        "101133.921000",
        "101134.932000",
        "101135.953000",
        "101136.909000",
        "101137.976000",
        "101138.922000",
        "101139.966000",
        "101140.925000",
        "101141.958000",
        "101142.914000",
        "101143.949000",
        "101144.914000",
        "101145.925000",
        "101146.919000",
        "101147.905000",
        "101148.907000",
        "101149.921000",
        "101150.931000",
        "101151.899000",
        "101152.949000",
        "101153.924000",
        "101154.919000",
        "101155.904000",
        "101156.929000",
        "101157.911000",
        "101158.910000",
        "101159.945000",
        "101200.921000",
        "101201.911000",
        "101202.953000",
        "101203.910000",
        "101204.903000",
        "101205.939000",
        "101206.916000",
        "101207.918000",
        "101208.961000",
        "101209.890000",
        "101210.924000",
        "101211.906000",
        "101212.982000",
        "101213.894000",
        "101214.901000",
        "101215.905000",
        "101216.929000",
        "101217.925000",
        "101218.911000",
        "101219.894000",
        "101220.909000",
        "101221.910000",
        "101222.913000",
        "101223.885000",
        "101224.943000",
        "101225.906000",
        "101226.948000",
        "101227.904000",
        "101228.951000",
        "101229.920000",
        "101230.905000",
        "101231.914000",
        "101232.957000",
        "101233.894000",
        "101234.911000",
        "101235.904000",
        "101236.926000",
        "101237.910000",
        "101238.908000",
        "101239.912000",
        "101240.933000",
        "101241.916000",
        "101242.941000",
        "101243.906000",
        "101244.898000",
        "101245.934000",
        "101246.906000",
        "101247.931000",
        "101248.912000",
        "101249.931000",
        "101250.919000",
        "101251.908000",
        "101252.928000",
        "101253.940000",
        "101254.897000",
        "101255.924000",
        "101256.929000",
        "101257.946000",
        "101258.936000",
        "101259.885000",
        "101300.923000",
        "101301.909000",
        "101302.926000",
        "101303.904000",
        "101304.931000",
        "101305.904000",
        "101306.891000",
        "101307.905000",
        "101308.976000",
        "101309.901000",
        "101310.956000",
        "101311.905000",
        "101312.932000",
        "101313.954000",
        "101314.919000",
        "101315.880000",
        "101316.921000",
        "101317.887000",
        "101318.938000",
        "101319.880000",
        "101320.919000",
        "101321.955000",
        "101322.933000",
        "101323.908000",
        "101324.931000",
        "101325.916000",
        "101326.923000",
        "101327.908000",
        "101328.951000",
        "101329.943000",
        "101330.975000",
        "101331.924000",
        "101332.928000",
        "101333.951000",
        "101334.878000",
        "101335.953000",
        "101336.893000",
        "101337.903000",
        "101338.907000",
        "101339.938000",
        "101340.939000",
        "101341.887000",
        "101342.902000",
        "101343.918000",
        "101344.957000",
        "101345.933000",
        "101346.913000",
        "101347.897000",
        "101348.931000",
        "101349.979000",
        "101350.931000",
        "101351.943000",
        "101352.938000",
        "101353.897000",
        "101354.917000",
        "101355.943000",
        "101356.918000",
        "101357.923000",
        "101358.921000",
        "101359.904000",
        "101400.912000",
        "101401.946000",
        "101402.890000",
        "101403.913000",
        "101404.925000",
        "101405.918000",
        "101406.905000",
        "101407.939000",
        "101408.946000",
        "101409.893000",
        "101410.916000",
        "101411.964000",
        "101412.894000",
        "101413.906000",
        "101414.901000",
        "101415.910000",
        "101416.914000",
        "101417.901000",
        "101418.933000",
        "101419.895000",
        "101420.913000",
        "101421.874000",
        "101422.899000",
        "101423.926000",
        "101424.918000",
        "101425.924000",
        "101426.908000",
        "101427.904000",
        "101428.955000",
        "101429.961000",
        "101430.917000",
        "101431.880000",
        "101432.901000",
        "101433.918000",
        "101434.937000",
        "101435.917000",
        "101436.914000",
        "101437.895000",
        "101438.944000",
        "101439.911000",
        "101440.920000",
        "101441.905000",
        "101442.914000",
        "101443.889000",
        "101444.927000",
        "101445.928000",
        "101446.902000",
        "101447.942000",
        "101448.893000",
        "101449.924000",
        "101450.917000",
        "101451.913000",
        "101452.895000",
        "101453.932000",
        "101454.934000",
        "101455.943000",
        "101456.888000",
        "101457.887000",
        "101458.913000",
        "101459.919000",
        "101500.928000"
      ],
      "InstanceCreationTime": [
        "101106.109000",
        "101106.933000",
        "101107.950000",
        "101108.947000",
        "101109.932000",
        "101110.936000",
        "101111.943000",
        "101112.975000",
        "101113.982000",
        "101114.969000",
        "101115.990000",
        "101116.940000",
        "101117.903000",
        "101118.910000",
        "101119.933000",
        "101120.968000",
        "101121.921000",
        "101122.907000",
        "101123.954000",
        "101124.925000",
        "101125.886000",
        "101126.912000",
        "101127.925000",
        "101128.957000",
        "101129.927000",
        "101130.985000",
        "101131.904000",
        "101132.927000",
        "101133.921000",
        "101134.932000",
        "101135.953000",
        "101136.909000",
        "101137.976000",
        "101138.922000",
        "101139.966000",
        "101140.925000",
        "101141.958000",
        "101142.914000",
        "101143.949000",
        "101144.914000",
        "101145.925000",
        "101146.919000",
        "101147.905000",
        "101148.907000",
        "101149.921000",
        "101150.931000",
        "101151.899000",
        "101152.949000",
        "101153.924000",
        "101154.919000",
        "101155.904000",
        "101156.929000",
        "101157.911000",
        "101158.910000",
        "101159.945000",
        "101200.921000",
        "101201.911000",
        "101202.953000",
        "101203.910000",
        "101204.903000",
        "101205.939000",
        "101206.916000",
        "101207.918000",
        "101208.961000",
        "101209.890000",
        "101210.924000",
        "101211.906000",
        "101212.982000",
        "101213.894000",
        "101214.901000",
        "101215.905000",
        "101216.929000",
        "101217.925000",
        "101218.911000",
        "101219.894000",
        "101220.909000",
        "101221.910000",
        "101222.913000",
        "101223.885000",
        "101224.943000",
        "101225.906000",
        "101226.948000",
        "101227.904000",
        "101228.951000",
        "101229.920000",
        "101230.905000",
        "101231.914000",
        "101232.957000",
        "101233.894000",
        "101234.911000",
        "101235.904000",
        "101236.926000",
        "101237.910000",
        "101238.908000",
        "101239.912000",
        "101240.933000",
        "101241.916000",
        "101242.941000",
        "101243.906000",
        "101244.898000",
        "101245.934000",
        "101246.906000",
        "101247.931000",
        "101248.912000",
        "101249.931000",
        "101250.919000",
        "101251.908000",
        "101252.928000",
        "101253.940000",
        "101254.897000",
        "101255.924000",
        "101256.929000",
        "101257.946000",
        "101258.936000",
        "101259.885000",
        "101300.923000",
        "101301.909000",
        "101302.926000",
        "101303.904000",
        "101304.931000",
        "101305.904000",
        "101306.891000",
        "101307.905000",
        "101308.976000",
        "101309.901000",
        "101310.956000",
        "101311.905000",
        "101312.932000",
        "101313.954000",
        "101314.919000",
        "101315.880000",
        "101316.921000",
        "101317.887000",
        "101318.938000",
        "101319.880000",
        "101320.919000",
        "101321.955000",
        "101322.933000",
        "101323.908000",
        "101324.931000",
        "101325.916000",
        "101326.923000",
        "101327.908000",
        "101328.951000",
        "101329.943000",
        "101330.975000",
        "101331.924000",
        "101332.928000",
        "101333.951000",
        "101334.878000",
        "101335.953000",
        "101336.893000",
        "101337.903000",
        "101338.907000",
        "101339.938000",
        "101340.939000",
        "101341.887000",
        "101342.902000",
        "101343.918000",
        "101344.957000",
        "101345.933000",
        "101346.913000",
        "101347.897000",
        "101348.931000",
        "101349.979000",
        "101350.931000",
        "101351.943000",
        "101352.938000",
        "101353.897000",
        "101354.917000",
        "101355.943000",
        "101356.918000",
        "101357.923000",
        "101358.921000",
        "101359.904000",
        "101400.912000",
        "101401.946000",
        "101402.890000",
        "101403.913000",
        "101404.925000",
        "101405.918000",
        "101406.905000",
        "101407.939000",
        "101408.946000",
        "101409.893000",
        "101410.916000",
        "101411.964000",
        "101412.894000",
        "101413.906000",
        "101414.901000",
        "101415.910000",
        "101416.914000",
        "101417.901000",
        "101418.933000",
        "101419.895000",
        "101420.913000",
        "101421.874000",
        "101422.899000",
        "101423.926000",
        "101424.918000",
        "101425.924000",
        "101426.908000",
        "101427.904000",
        "101428.955000",
        "101429.961000",
        "101430.917000",
        "101431.880000",
        "101432.901000",
        "101433.918000",
        "101434.937000",
        "101435.917000",
        "101436.914000",
        "101437.895000",
        "101438.944000",
        "101439.911000",
        "101440.920000",
        "101441.905000",
        "101442.914000",
        "101443.889000",
        "101444.927000",
        "101445.928000",
        "101446.902000",
        "101447.942000",
        "101448.893000",
        "101449.924000",
        "101450.917000",
        "101451.913000",
        "101452.895000",
        "101453.932000",
        "101454.934000",
        "101455.943000",
        "101456.888000",
        "101457.887000",
        "101458.913000",
        "101459.919000",
        "101500.928000"
      ],
      "InstanceNumber": [
        1,
        2,
        3,
        4,
        5,
        6,
        7,
        8,
        9,
        10,
        11,
        12,
        13,
        14,
        15,
        16,
        17,
        18,
        19,
        20,
        21,
        22,
        23,
        24,
        25,
        26,
        27,
        28,
        29,
        30,
        31,
        32,
        33,
        34,
        35,
        36,
        37,
        38,
        39,
        40,
        41,
        42,
        43,
        44,
        45,
        46,
        47,
        48,
        49,
        50,
        51,
        52,
        53,
        54,
        55,
        56,
        57,
        58,
        59,
        60,
        61,
        62,
        63,
        64,
        65,
        66,
        67,
        68,
        69,
        70,
        71,
        72,
        73,
        74,
        75,
        76,
        77,
        78,
        79,
        80,
        81,
        82,
        83,
        84,
        85,
        86,
        87,
        88,
        89,
        90,
        91,
        92,
        93,
        94,
        95,
        96,
        97,
        98,
        99,
        100,
        101,
        102,
        103,
        104,
        105,
        106,
        107,
        108,
        109,
        110,
        111,
        112,
        113,
        114,
        115,
        116,
        117,
        118,
        119,
        120,
        121,
        122,
        123,
        124,
        125,
        126,
        127,
        128,
        129,
        130,
        131,
        132,
        133,
        134,
        135,
        136,
        137,
        138,
        139,
        140,
        141,
        142,
        143,
        144,
        145,
        146,
        147,
        148,
        149,
        150,
        151,
        152,
        153,
        154,
        155,
        156,
        157,
        158,
        159,
        160,
        161,
        162,
        163,
        164,
        165,
        166,
        167,
        168,
        169,
        170,
        171,
        172,
        173,
        174,
        175,
        176,
        177,
        178,
        179,
        180,
        181,
        182,
        183,
        184,
        185,
        186,
        187,
        188,
        189,
        190,
        191,
        192,
        193,
        194,
        195,
        196,
        197,
        198,
        199,
        200,
        201,
        202,
        203,
        204,
        205,
        206,
        207,
        208,
        209,
        210,
        211,
        212,
        213,
        214,
        215,
        216,
        217,
        218,
        219,
        220,
        221,
        222,
        223,
        224,
        225,
        226,
        227,
        228,
        229,
        230,
        231,
        232,
        233,
        234,
        235,
        236
      ],
      "LargestImagePixelValue": [
        763,
        842,
        873,
        825,
        954,
        1032,
        895,
        905,
        946,
        812,
        792,
        711,
        738,
        931,
        849,
        953,
        987,
        921,
        820,
        1033,
        786,
        795,
        890,
        828,
        765,
        755,
        779,
        719,
        714,
        762,
        705,
        704,
        786,
        803,
        804,
        917,
        928,
        1076,
        887,
        778,
        885,
        881,
        836,
        1011,
        845,
        844,
        975,
        801,
        885,
        807,
        728,
        902,
        904,
        966,
        998,
        868,
        883,
        970,
        834,
        905,
        818,
        772,
        780,
        752,
        813,
        854,
        756,
        848,
        965,
        973,
        1058,
        1090,
        1029,
        1009,
        886,
        783,
        743,
        737,
        792,
        736,
        757,
        866,
        769,
        747,
        891,
        802,
        862,
        865,
        811,
        892,
        909,
        990,
        1010,
        815,
        721,
        907,
        794,
        802,
        796,
        859,
        959,
        940,
        941,
        1142,
        973,
        939,
        823,
        873,
        905,
        897,
        817,
        983,
        825,
        787,
        809,
        893,
        958,
        978,
        1025,
        1073,
        859,
        735,
        857,
        785,
        921,
        1104,
        874,
        866,
        873,
        891,
        982,
        1045,
        998,
        831,
        870,
        929,
        848,
        773,
        945,
        800,
        752,
        747,
        700,
        847,
        919,
        935,
        1175,
        913,
        763,
        802,
        704,
        849,
        992,
        799,
        870,
        976,
        1034,
        1063,
        997,
        1034,
        734,
        814,
        769,
        767,
        921,
        784,
        772,
        974,
        962,
        1070,
        982,
        936,
        1078,
        824,
        802,
        796,
        748,
        858,
        880,
        785,
        727,
        940,
        1079,
        983,
        962,
        989,
        938,
        849,
        720,
        847,
        854,
        828,
        832,
        1000,
        898,
        921,
        875,
        718,
        762,
        816,
        744,
        880,
        822,
        834,
        957,
        907,
        954,
        958,
        758,
        807,
        808,
        741,
        852,
        800,
        749,
        946,
        901,
        979,
        1009,
        1015,
        1081,
        925,
        792,
        923,
        799,
        909,
        952,
        990,
        1081,
        1038,
        1007,
        1061,
        968,
        855,
        830,
        737
      ],
      "WindowCenter": [
        352,
        353,
        353,
        352,
        353,
        353,
        352,
        352,
        352,
        351,
        351,
        351,
        351,
        353,
        352,
        352,
        353,
        352,
        351,
        353,
        351,
        351,
        352,
        351,
        351,
        351,
