{
  "AcquisitionMatrixPE": 96,
  "AcquisitionNumber": 1,
  "BandwidthPerPixelPhaseEncode": 18.939,
  "BaseResolution": 96,
  "BodyPartExamined": "BRAIN",
  "ConsistencyInfo": "N4_VE11C_LATEST_20160120",
  "ConversionSoftware": "dcm2niix",
  "ConversionSoftwareVersion": "v1.0.20171215 (OpenJPEG build) GCC6.3.0",
  "DerivedVendorReportedEchoSpacing": 0.000550011,
  "DeviceSerialNumber": "66112",
  "DwellTime": 2.2e-06,
  "EchoTime": 0.033,
  "EchoTrainLength": 96,
  "EffectiveEchoSpacing": 0.000550011,
  "FlipAngle": 59,
  "ImageOrientationPatientDICOM": [
    0.999099,
    0.00120388,
    0.0424178,
    -0.000697488,
    0.999928,
    -0.0119511
  ],
  "ImageType": [
    "ORIGINAL",
    "PRIMARY",
    "FMRI",
    "NONE",
    "ND",
    "NORM",
    "MOSAIC"
  ],
  "InPlanePhaseEncodingDirectionDICOM": "COL",
  "InstitutionAddress": "Maynard_3_Hanover_NH_US_03755",
  "InstitutionName": "Dartmouth_College_-_PBS",
  "InstitutionalDepartmentName": "Department",
  "MRAcquisitionType": "2D",
  "MagneticFieldStrength": 3,
  "Manufacturer": "Siemens",
  "ManufacturersModelName": "Prisma",
  "Modality": "MR",
  "MultibandAccelerationFactor": 4,
  "PartialFourier": 1,
  "PatientPosition": "HFS",
  "PercentPhaseFOV": 100,
  "PhaseEncodingDirection": "j-",
  "PhaseEncodingSteps": 96,
  "PhaseResolution": 1,
  "PixelBandwidth": 2365,
  "ProcedureStepDescription": "Gobbini_Matteo_1038_hyperface",
  "ProtocolName": "func_run-08_task-visualmemory",
  "PulseSequenceDetails": "%SiemensSeq%_ep2d_bold",
  "ReceiveCoilActiveElements": "HEA;HEP",
  "ReceiveCoilName": "Head_32",
  "ReconMatrixPE": 96,
  "RepetitionTime": 1,
  "SAR": 0.0411116,
  "ScanOptions": "FS",
  "ScanningSequence": "EP",
  "SequenceName": "_epfid2d1_96",
  "SequenceVariant": "SK",
  "SeriesDescription": "func_run-08_task-visualmemory",
  "SeriesNumber": 57,
  "ShimSetting": [
    4155,
    -7718,
    -7476,
    289,
    -30,
    -12,
    -109,
    70
  ],
  "SliceThickness": 2.5,
  "SliceTiming": [
    0.735,
    0,
    0.49,
    0.08,
    0.57,
    0.1625,
    0.6525,
    0.325,
    0.815,
    0.4075,
    0.8975,
    0.245,
    0.735,
    0,
    0.49,
    0.08,
    0.57,
    0.1625,
    0.6525,
    0.325,
    0.815,
    0.4075,
    0.8975,
    0.245,
    0.735,
    0,
    0.49,
    0.08,
    0.57,
    0.1625,
    0.6525,
    0.325,
    0.815,
    0.4075,
    0.8975,
    0.245,
    0.735,
    0,
    0.49,
    0.08,
    0.57,
    0.1625,
    0.6525,
    0.325,
    0.815,
    0.4075,
    0.8975,
    0.245
  ],
  "SoftwareVersions": "syngo_MR_E11",
  "SpacingBetweenSlices": 2.5,
  "StationName": "AWP66112",
  "TotalReadoutTime": 0.0522511,
  "TxRefAmp": 229.09,
  "time": {
    "samples": {
      "AcquisitionNumber": [
        1,
        2,
        3,
        4,
        5,
        6,
        7,
        8,
        9,
        10,
        11,
        12,
        13,
        14,
        15,
        16,
        17,
        18,
        19,
        20,
        21,
        22,
        23,
        24,
        25,
        26,
        27,
        28,
        29,
        30,
        31,
        32,
        33,
        34,
        35,
        36,
        37,
        38,
        39,
        40,
        41,
        42,
        43,
        44,
        45,
        46,
        47,
        48,
        49,
        50,
        51,
        52,
        53,
        54,
        55,
        56,
        57,
        58,
        59,
        60,
        61,
        62,
        63,
        64,
        65,
        66,
        67,
        68,
        69,
        70,
        71,
        72,
        73,
        74,
        75,
        76,
        77,
        78,
        79,
        80,
        81,
        82,
        83,
        84,
        85,
        86,
        87,
        88,
        89,
        90,
        91,
        92,
        93,
        94,
        95,
        96,
        97,
        98,
        99,
        100,
        101,
        102,
        103,
        104,
        105,
        106,
        107,
        108,
        109,
        110,
        111,
        112,
        113,
        114,
        115,
        116,
        117,
        118,
        119,
        120,
        121,
        122,
        123,
        124,
        125,
        126,
        127,
        128,
        129,
        130,
        131,
        132,
        133,
        134,
        135,
        136,
        137,
        138,
        139,
        140,
        141,
        142,
        143,
        144,
        145,
        146,
        147,
        148,
        149,
        150,
        151,
        152,
        153,
        154,
        155,
        156,
        157,
        158,
        159,
        160,
        161,
        162,
        163,
        164,
        165,
        166,
        167,
        168,
        169,
        170,
        171,
        172,
        173,
        174,
        175,
        176,
        177,
        178,
        179,
        180,
        181,
        182,
        183,
        184,
        185,
        186,
        187,
        188,
        189,
        190,
        191,
        192,
        193,
        194,
        195,
        196,
        197,
        198,
        199,
        200,
        201,
        202,
        203,
        204,
        205,
        206,
        207,
        208,
        209,
        210,
        211,
        212,
        213,
        214,
        215,
        216,
        217,
        218,
        219,
        220,
        221,
        222,
        223,
        224,
        225,
        226,
        227,
        228,
        229,
        230,
        231,
        232,
        233,
        234,
        235,
        236,
        237,
        238,
        239,
        240,
        241,
        242,
        243,
        244,
        245,
        246,
        247,
        248,
        249,
        250,
        251,
        252,
        253,
        254,
        255,
        256,
        257,
        258,
        259,
        260,
        261,
        262,
        263,
        264,
        265,
        266,
        267,
        268,
        269,
        270,
        271,
        272,
        273,
        274,
        275,
        276,
        277,
        278,
        279,
        280,
        281,
        282,
        283,
        284,
        285,
        286,
        287,
        288
      ],
      "AcquisitionTime": [
        "104700.312500",
        "104701.312500",
        "104702.312500",
        "104703.312500",
        "104704.312500",
        "104705.312500",
        "104706.312500",
        "104707.312500",
        "104708.312500",
        "104709.312500",
        "104710.312500",
        "104711.312500",
        "104712.312500",
        "104713.312500",
        "104714.312500",
        "104715.312500",
        "104716.312500",
        "104717.312500",
        "104718.312500",
        "104719.312500",
        "104720.312500",
        "104721.312500",
        "104722.312500",
        "104723.312500",
        "104724.312500",
        "104725.312500",
        "104726.312500",
        "104727.312500",
        "104728.312500",
        "104729.312500",
        "104730.312500",
        "104731.312500",
        "104732.312500",
        "104733.312500",
        "104734.312500",
        "104735.312500",
        "104736.312500",
        "104737.312500",
        "104738.312500",
        "104739.312500",
        "104740.312500",
        "104741.312500",
        "104742.312500",
        "104743.312500",
        "104744.312500",
        "104745.312500",
        "104746.312500",
        "104747.312500",
        "104748.312500",
        "104749.312500",
        "104750.312500",
        "104751.312500",
        "104752.312500",
        "104753.312500",
        "104754.312500",
        "104755.312500",
        "104756.312500",
        "104757.312500",
        "104758.312500",
        "104759.312500",
        "104800.312500",
        "104801.312500",
        "104802.312500",
        "104803.312500",
        "104804.312500",
        "104805.312500",
        "104806.312500",
        "104807.312500",
        "104808.312500",
        "104809.312500",
        "104810.312500",
        "104811.312500",
        "104812.312500",
        "104813.312500",
        "104814.312500",
        "104815.312500",
        "104816.312500",
        "104817.312500",
        "104818.312500",
        "104819.312500",
        "104820.312500",
        "104821.312500",
        "104822.312500",
        "104823.312500",
        "104824.312500",
        "104825.312500",
        "104826.312500",
        "104827.312500",
        "104828.312500",
        "104829.312500",
        "104830.312500",
        "104831.312500",
        "104832.312500",
        "104833.312500",
        "104834.312500",
        "104835.312500",
        "104836.312500",
        "104837.312500",
        "104838.312500",
        "104839.312500",
        "104840.312500",
        "104841.312500",
        "104842.312500",
        "104843.312500",
        "104844.312500",
        "104845.312500",
        "104846.312500",
        "104847.312500",
        "104848.312500",
        "104849.312500",
        "104850.312500",
        "104851.312500",
        "104852.312500",
        "104853.312500",
        "104854.312500",
        "104855.312500",
        "104856.312500",
        "104857.312500",
        "104858.312500",
        "104859.312500",
        "104900.312500",
        "104901.312500",
        "104902.312500",
        "104903.312500",
        "104904.312500",
        "104905.312500",
        "104906.312500",
        "104907.312500",
        "104908.312500",
        "104909.312500",
        "104910.312500",
        "104911.312500",
        "104912.312500",
        "104913.312500",
        "104914.312500",
        "104915.312500",
        "104916.312500",
        "104917.312500",
        "104918.312500",
        "104919.312500",
        "104920.312500",
        "104921.312500",
        "104922.312500",
        "104923.312500",
        "104924.312500",
        "104925.312500",
        "104926.312500",
        "104927.312500",
        "104928.312500",
        "104929.312500",
        "104930.312500",
        "104931.312500",
        "104932.312500",
        "104933.312500",
        "104934.312500",
        "104935.312500",
        "104936.312500",
        "104937.312500",
        "104938.312500",
        "104939.312500",
        "104940.312500",
        "104941.312500",
        "104942.312500",
        "104943.312500",
        "104944.312500",
        "104945.312500",
        "104946.312500",
        "104947.312500",
        "104948.312500",
        "104949.312500",
        "104950.312500",
        "104951.312500",
        "104952.312500",
        "104953.312500",
        "104954.312500",
        "104955.312500",
        "104956.312500",
        "104957.312500",
        "104958.312500",
        "104959.312500",
        "105000.312500",
        "105001.312500",
        "105002.312500",
        "105003.312500",
        "105004.312500",
        "105005.312500",
        "105006.312500",
        "105007.312500",
        "105008.312500",
        "105009.312500",
        "105010.312500",
        "105011.312500",
        "105012.312500",
        "105013.312500",
        "105014.312500",
        "105015.312500",
        "105016.312500",
        "105017.312500",
        "105018.312500",
        "105019.312500",
        "105020.312500",
        "105021.312500",
        "105022.312500",
        "105023.312500",
        "105024.312500",
        "105025.312500",
        "105026.312500",
        "105027.312500",
        "105028.312500",
        "105029.312500",
        "105030.312500",
        "105031.312500",
        "105032.312500",
        "105033.312500",
        "105034.312500",
        "105035.312500",
        "105036.312500",
        "105037.312500",
        "105038.312500",
        "105039.312500",
        "105040.312500",
        "105041.312500",
        "105042.312500",
        "105043.312500",
        "105044.312500",
        "105045.312500",
        "105046.312500",
        "105047.312500",
        "105048.312500",
        "105049.312500",
        "105050.312500",
        "105051.312500",
        "105052.312500",
        "105053.312500",
        "105054.312500",
        "105055.312500",
        "105056.312500",
        "105057.312500",
        "105058.312500",
        "105059.312500",
        "105100.312500",
        "105101.312500",
        "105102.312500",
        "105103.312500",
        "105104.312500",
        "105105.312500",
        "105106.312500",
        "105107.312500",
        "105108.312500",
        "105109.312500",
        "105110.312500",
        "105111.312500",
        "105112.312500",
        "105113.312500",
        "105114.312500",
        "105115.312500",
        "105116.312500",
        "105117.312500",
        "105118.312500",
        "105119.312500",
        "105120.312500",
        "105121.312500",
        "105122.312500",
        "105123.312500",
        "105124.312500",
        "105125.312500",
        "105126.312500",
        "105127.312500",
        "105128.312500",
        "105129.312500",
        "105130.312500",
        "105131.312500",
        "105132.312500",
        "105133.312500",
        "105134.312500",
        "105135.312500",
        "105136.312500",
        "105137.312500",
        "105138.312500",
        "105139.312500",
        "105140.312500",
        "105141.312500",
        "105142.312500",
        "105143.312500",
        "105144.312500",
        "105145.312500",
        "105146.312500",
        "105147.312500"
      ],
      "ContentTime": [
        "104701.215000",
        "104702.106000",
        "104703.092000",
        "104704.069000",
        "104705.083000",
        "104706.053000",
        "104707.083000",
        "104708.073000",
        "104709.068000",
        "104710.069000",
        "104711.078000",
        "104712.048000",
        "104713.083000",
        "104714.093000",
        "104715.058000",
        "104716.060000",
        "104717.068000",
        "104718.062000",
        "104719.055000",
        "104720.153000",
        "104721.130000",
        "104722.080000",
        "104723.064000",
        "104724.052000",
        "104725.050000",
        "104726.075000",
        "104727.066000",
        "104728.061000",
        "104729.071000",
        "104730.075000",
        "104731.063000",
        "104732.066000",
        "104733.057000",
        "104734.075000",
        "104735.051000",
        "104736.074000",
        "104737.055000",
        "104738.055000",
        "104739.071000",
        "104740.077000",
        "104741.071000",
        "104742.070000",
        "104743.079000",
        "104744.083000",
        "104745.052000",
        "104746.061000",
        "104747.047000",
        "104748.079000",
        "104749.094000",
        "104750.106000",
        "104751.069000",
        "104752.049000",
        "104753.052000",
        "104754.059000",
        "104755.050000",
        "104756.062000",
        "104757.085000",
        "104758.076000",
        "104759.112000",
        "104800.064000",
        "104801.067000",
        "104802.070000",
        "104803.061000",
        "104804.059000",
        "104805.065000",
        "104806.059000",
        "104807.075000",
        "104808.046000",
        "104809.052000",
        "104810.058000",
        "104811.083000",
        "104812.078000",
        "104813.100000",
        "104814.077000",
        "104815.066000",
        "104816.051000",
        "104817.052000",
        "104818.058000",
        "104819.056000",
        "104820.071000",
        "104821.045000",
        "104822.051000",
        "104823.043000",
        "104824.057000",
        "104825.060000",
        "104826.107000",
        "104827.085000",
        "104828.064000",
        "104829.064000",
        "104830.080000",
        "104831.045000",
        "104832.046000",
        "104833.060000",
        "104834.073000",
        "104835.082000",
        "104836.110000",
        "104837.049000",
        "104838.071000",
        "104839.057000",
        "104840.051000",
        "104841.071000",
        "104842.095000",
        "104843.080000",
        "104844.079000",
        "104845.115000",
        "104846.080000",
        "104847.096000",
        "104848.124000",
        "104849.096000",
        "104850.063000",
        "104851.077000",
        "104852.147000",
        "104853.073000",
        "104854.065000",
        "104855.063000",
        "104856.085000",
        "104857.070000",
        "104858.062000",
        "104859.089000",
        "104900.103000",
        "104901.065000",
        "104902.068000",
        "104903.064000",
        "104904.061000",
        "104905.054000",
        "104906.116000",
        "104907.076000",
        "104908.084000",
        "104909.062000",
        "104910.050000",
        "104911.084000",
        "104912.056000",
        "104913.085000",
        "104914.065000",
        "104915.089000",
        "104916.093000",
        "104917.091000",
        "104918.173000",
        "104919.080000",
        "104920.083000",
        "104921.084000",
        "104922.081000",
        "104923.084000",
        "104924.057000",
        "104925.082000",
        "104926.080000",
        "104927.088000",
        "104928.086000",
        "104929.124000",
        "104930.072000",
        "104931.073000",
        "104932.041000",
        "104933.068000",
        "104934.076000",
        "104935.064000",
        "104936.079000",
        "104937.070000",
        "104938.083000",
        "104939.074000",
        "104940.077000",
        "104941.058000",
        "104942.076000",
        "104943.055000",
        "104944.076000",
        "104945.060000",
        "104946.080000",
        "104947.074000",
        "104948.104000",
        "104949.062000",
        "104950.082000",
        "104951.063000",
        "104952.076000",
        "104953.077000",
        "104954.090000",
        "104955.065000",
        "104956.098000",
        "104957.085000",
        "104958.095000",
        "104959.129000",
        "105000.089000",
        "105001.075000",
        "105002.060000",
        "105003.058000",
        "105004.077000",
        "105005.043000",
        "105006.082000",
        "105007.043000",
        "105008.102000",
        "105009.064000",
        "105010.099000",
        "105011.091000",
        "105012.089000",
        "105013.078000",
        "105014.078000",
        "105015.086000",
        "105016.084000",
        "105017.073000",
        "105018.078000",
        "105019.084000",
        "105020.061000",
        "105021.057000",
        "105022.087000",
        "105023.062000",
        "105024.067000",
        "105025.078000",
        "105026.061000",
        "105027.064000",
        "105028.079000",
        "105029.055000",
        "105030.070000",
        "105031.065000",
        "105032.045000",
        "105033.058000",
        "105034.059000",
        "105035.149000",
        "105036.089000",
        "105037.063000",
        "105038.088000",
        "105039.084000",
        "105040.085000",
        "105041.090000",
        "105042.116000",
        "105043.061000",
        "105044.072000",
        "105045.056000",
        "105046.052000",
        "105047.103000",
        "105048.089000",
        "105049.084000",
        "105050.089000",
        "105051.073000",
        "105052.059000",
        "105053.072000",
        "105054.073000",
        "105055.116000",
        "105056.099000",
        "105057.110000",
        "105058.087000",
        "105059.071000",
        "105100.120000",
        "105101.060000",
        "105102.093000",
        "105103.067000",
        "105104.048000",
        "105105.072000",
        "105106.085000",
        "105107.083000",
        "105108.129000",
        "105109.127000",
        "105110.070000",
        "105111.068000",
        "105112.064000",
        "105113.085000",
        "105114.068000",
        "105115.066000",
        "105116.064000",
        "105117.073000",
        "105118.068000",
        "105119.072000",
        "105120.087000",
        "105121.092000",
        "105122.077000",
        "105123.083000",
        "105124.071000",
        "105125.068000",
        "105126.130000",
        "105127.077000",
        "105128.037000",
        "105129.061000",
        "105130.100000",
        "105131.076000",
        "105132.085000",
        "105133.064000",
        "105134.086000",
        "105135.068000",
        "105136.067000",
        "105137.124000",
        "105138.095000",
        "105139.092000",
        "105140.070000",
        "105141.069000",
        "105142.059000",
        "105143.096000",
        "105144.065000",
        "105145.130000",
        "105146.101000",
        "105147.093000",
        "105148.105000"
      ],
      "InstanceCreationTime": [
        "104701.215000",
        "104702.106000",
        "104703.092000",
        "104704.069000",
        "104705.083000",
        "104706.053000",
        "104707.083000",
        "104708.073000",
        "104709.068000",
        "104710.069000",
        "104711.078000",
        "104712.048000",
        "104713.083000",
        "104714.093000",
        "104715.058000",
        "104716.060000",
        "104717.068000",
        "104718.062000",
        "104719.055000",
        "104720.153000",
        "104721.130000",
        "104722.080000",
        "104723.064000",
        "104724.052000",
        "104725.050000",
        "104726.075000",
        "104727.066000",
        "104728.061000",
        "104729.071000",
        "104730.075000",
        "104731.063000",
        "104732.066000",
        "104733.057000",
        "104734.075000",
        "104735.051000",
        "104736.074000",
        "104737.055000",
        "104738.055000",
        "104739.071000",
        "104740.077000",
        "104741.071000",
        "104742.070000",
        "104743.079000",
        "104744.083000",
        "104745.052000",
        "104746.061000",
        "104747.047000",
        "104748.079000",
        "104749.094000",
        "104750.106000",
        "104751.069000",
        "104752.049000",
        "104753.052000",
        "104754.059000",
        "104755.050000",
        "104756.062000",
        "104757.085000",
        "104758.076000",
        "104759.112000",
        "104800.064000",
        "104801.067000",
        "104802.070000",
        "104803.061000",
        "104804.059000",
        "104805.065000",
        "104806.059000",
        "104807.075000",
        "104808.046000",
        "104809.052000",
        "104810.058000",
        "104811.083000",
        "104812.078000",
        "104813.100000",
        "104814.077000",
        "104815.066000",
        "104816.051000",
        "104817.052000",
        "104818.058000",
        "104819.056000",
        "104820.071000",
        "104821.045000",
        "104822.051000",
        "104823.043000",
        "104824.057000",
        "104825.060000",
        "104826.107000",
        "104827.085000",
        "104828.064000",
        "104829.064000",
        "104830.080000",
        "104831.045000",
        "104832.046000",
        "104833.060000",
        "104834.073000",
        "104835.082000",
        "104836.110000",
        "104837.049000",
        "104838.071000",
        "104839.057000",
        "104840.051000",
        "104841.071000",
        "104842.095000",
        "104843.080000",
        "104844.079000",
        "104845.115000",
        "104846.080000",
        "104847.096000",
        "104848.124000",
        "104849.096000",
        "104850.063000",
        "104851.077000",
        "104852.147000",
        "104853.073000",
        "104854.065000",
        "104855.063000",
        "104856.085000",
        "104857.070000",
        "104858.062000",
        "104859.089000",
        "104900.103000",
        "104901.065000",
        "104902.068000",
        "104903.064000",
        "104904.061000",
        "104905.054000",
        "104906.116000",
        "104907.076000",
        "104908.084000",
        "104909.062000",
        "104910.050000",
        "104911.084000",
        "104912.056000",
        "104913.085000",
        "104914.065000",
        "104915.089000",
        "104916.093000",
        "104917.091000",
        "104918.173000",
        "104919.080000",
        "104920.083000",
        "104921.084000",
        "104922.081000",
        "104923.084000",
        "104924.057000",
        "104925.082000",
        "104926.080000",
        "104927.088000",
        "104928.086000",
        "104929.124000",
        "104930.072000",
        "104931.073000",
        "104932.041000",
        "104933.068000",
        "104934.076000",
        "104935.064000",
        "104936.079000",
        "104937.070000",
        "104938.083000",
        "104939.074000",
        "104940.077000",
        "104941.058000",
        "104942.076000",
        "104943.055000",
        "104944.076000",
        "104945.060000",
        "104946.080000",
        "104947.074000",
        "104948.104000",
        "104949.062000",
        "104950.082000",
        "104951.063000",
        "104952.076000",
        "104953.077000",
        "104954.090000",
        "104955.065000",
        "104956.098000",
        "104957.085000",
        "104958.095000",
        "104959.129000",
        "105000.089000",
        "105001.075000",
        "105002.060000",
        "105003.058000",
        "105004.077000",
        "105005.043000",
        "105006.082000",
        "105007.043000",
        "105008.102000",
        "105009.064000",
        "105010.099000",
        "105011.091000",
        "105012.089000",
        "105013.078000",
        "105014.078000",
        "105015.086000",
        "105016.084000",
        "105017.073000",
        "105018.078000",
        "105019.084000",
        "105020.061000",
        "105021.057000",
        "105022.087000",
        "105023.062000",
        "105024.067000",
        "105025.078000",
        "105026.061000",
        "105027.064000",
        "105028.079000",
        "105029.055000",
        "105030.070000",
        "105031.065000",
        "105032.045000",
        "105033.058000",
        "105034.059000",
        "105035.149000",
        "105036.089000",
        "105037.063000",
        "105038.088000",
        "105039.084000",
        "105040.085000",
        "105041.090000",
        "105042.116000",
        "105043.061000",
        "105044.072000",
        "105045.056000",
        "105046.052000",
        "105047.103000",
        "105048.089000",
        "105049.084000",
        "105050.089000",
        "105051.073000",
        "105052.059000",
        "105053.072000",
        "105054.073000",
        "105055.116000",
        "105056.099000",
        "105057.110000",
        "105058.087000",
        "105059.071000",
        "105100.120000",
        "105101.060000",
        "105102.093000",
        "105103.067000",
        "105104.048000",
        "105105.072000",
        "105106.085000",
        "105107.083000",
        "105108.129000",
        "105109.127000",
        "105110.070000",
        "105111.068000",
        "105112.064000",
        "105113.085000",
        "105114.068000",
        "105115.066000",
        "105116.064000",
        "105117.073000",
        "105118.068000",
        "105119.072000",
        "105120.087000",
        "105121.092000",
        "105122.077000",
        "105123.083000",
        "105124.071000",
        "105125.068000",
        "105126.130000",
        "105127.077000",
        "105128.037000",
        "105129.061000",
        "105130.100000",
        "105131.076000",
        "105132.085000",
        "105133.064000",
        "105134.086000",
        "105135.068000",
        "105136.067000",
        "105137.124000",
        "105138.095000",
        "105139.092000",
        "105140.070000",
        "105141.069000",
        "105142.059000",
        "105143.096000",
        "105144.065000",
        "105145.130000",
        "105146.101000",
        "105147.093000",
        "105148.105000"
      ],
      "InstanceNumber": [
        1,
        2,
        3,
        4,
        5,
        6,
        7,
        8,
        9,
        10,
        11,
        12,
        13,
        14,
        15,
        16,
        17,
        18,
        19,
        20,
        21,
        22,
        23,
        24,
        25,
        26,
        27,
        28,
        29,
        30,
        31,
        32,
        33,
        34,
        35,
        36,
        37,
        38,
        39,
        40,
        41,
        42,
        43,
        44,
        45,
        46,
        47,
        48,
        49,
        50,
        51,
        52,
        53,
        54,
        55,
        56,
        57,
        58,
        59,
        60,
        61,
        62,
        63,
        64,
        65,
        66,
        67,
        68,
        69,
        70,
        71,
        72,
        73,
        74,
        75,
        76,
        77,
        78,
        79,
        80,
        81,
        82,
        83,
        84,
        85,
        86,
        87,
        88,
        89,
        90,
        91,
        92,
        93,
        94,
        95,
        96,
        97,
        98,
        99,
        100,
        101,
        102,
        103,
        104,
        105,
        106,
        107,
        108,
        109,
        110,
        111,
        112,
        113,
        114,
        115,
        116,
        117,
        118,
        119,
        120,
        121,
        122,
        123,
        124,
        125,
        126,
        127,
        128,
        129,
        130,
        131,
        132,
        133,
        134,
        135,
        136,
        137,
        138,
        139,
        140,
        141,
        142,
        143,
        144,
        145,
        146,
        147,
        148,
        149,
        150,
        151,
        152,
        153,
        154,
        155,
