{
  "AcquisitionMatrixPE": 96,
  "AcquisitionNumber": 1,
  "BandwidthPerPixelPhaseEncode": 18.939,
  "BaseResolution": 96,
  "BodyPartExamined": "BRAIN",
  "ConsistencyInfo": "N4_VE11C_LATEST_20160120",
  "ConversionSoftware": "dcm2niix",
  "ConversionSoftwareVersion": "v1.0.20171215 (OpenJPEG build) GCC6.3.0",
  "DerivedVendorReportedEchoSpacing": 0.000550011,
  "DeviceSerialNumber": "66112",
  "DwellTime": 2.2e-06,
  "EchoTime": 0.033,
  "EchoTrainLength": 96,
  "EffectiveEchoSpacing": 0.000550011,
  "FlipAngle": 59,
  "ImageOrientationPatientDICOM": [
    0.999099,
    0.00120388,
    0.0424178,
    -0.000697488,
    0.999928,
    -0.0119511
  ],
  "ImageType": [
    "ORIGINAL",
    "PRIMARY",
    "FMRI",
    "NONE",
    "ND",
    "NORM",
    "MOSAIC"
  ],
  "InPlanePhaseEncodingDirectionDICOM": "COL",
  "InstitutionAddress": "Maynard_3_Hanover_NH_US_03755",
  "InstitutionName": "Dartmouth_College_-_PBS",
  "InstitutionalDepartmentName": "Department",
  "MRAcquisitionType": "2D",
  "MagneticFieldStrength": 3,
  "Manufacturer": "Siemens",
  "ManufacturersModelName": "Prisma",
  "Modality": "MR",
  "MultibandAccelerationFactor": 4,
  "PartialFourier": 1,
  "PatientPosition": "HFS",
  "PercentPhaseFOV": 100,
  "PhaseEncodingDirection": "j-",
  "PhaseEncodingSteps": 96,
  "PhaseResolution": 1,
  "PixelBandwidth": 2365,
  "ProcedureStepDescription": "Gobbini_Matteo_1038_hyperface",
  "ProtocolName": "func_run-02_task-visualmemory",
  "PulseSequenceDetails": "%SiemensSeq%_ep2d_bold",
  "ReceiveCoilActiveElements": "HEA;HEP",
  "ReceiveCoilName": "Head_32",
  "ReconMatrixPE": 96,
  "RepetitionTime": 1,
  "SAR": 0.0411116,
  "ScanOptions": "FS",
  "ScanningSequence": "EP",
  "SequenceName": "_epfid2d1_96",
  "SequenceVariant": "SK",
  "SeriesDescription": "func_run-02_task-visualmemory",
  "SeriesNumber": 15,
  "ShimSetting": [
    4155,
    -7718,
    -7476,
    289,
    -30,
    -12,
    -109,
    70
  ],
  "SliceThickness": 2.5,
  "SliceTiming": [
    0.735,
    0,
    0.49,
    0.08,
    0.57,
    0.1625,
    0.6525,
    0.325,
    0.815,
    0.4075,
    0.8975,
    0.245,
    0.735,
    0,
    0.49,
    0.08,
    0.57,
    0.1625,
    0.6525,
    0.325,
    0.815,
    0.4075,
    0.8975,
    0.245,
    0.735,
    0,
    0.49,
    0.08,
    0.57,
    0.1625,
    0.6525,
    0.325,
    0.815,
    0.4075,
    0.8975,
    0.245,
    0.735,
    0,
    0.49,
    0.08,
    0.57,
    0.1625,
    0.6525,
    0.325,
    0.815,
    0.4075,
    0.8975,
    0.245
  ],
  "SoftwareVersions": "syngo_MR_E11",
  "SpacingBetweenSlices": 2.5,
  "StationName": "AWP66112",
  "TotalReadoutTime": 0.0522511,
  "TxRefAmp": 229.09,
  "time": {
    "samples": {
      "AcquisitionNumber": [
        1,
        2,
        3,
        4,
        5,
        6,
        7,
        8,
        9,
        10,
        11,
        12,
        13,
        14,
        15,
        16,
        17,
        18,
        19,
        20,
        21,
        22,
        23,
        24,
        25,
        26,
        27,
        28,
        29,
        30,
        31,
        32,
        33,
        34,
        35,
        36,
        37,
        38,
        39,
        40,
        41,
        42,
        43,
        44,
        45,
        46,
        47,
        48,
        49,
        50,
        51,
        52,
        53,
        54,
        55,
        56,
        57,
        58,
        59,
        60,
        61,
        62,
        63,
        64,
        65,
        66,
        67,
        68,
        69,
        70,
        71,
        72,
        73,
        74,
        75,
        76,
        77,
        78,
        79,
        80,
        81,
        82,
        83,
        84,
        85,
        86,
        87,
        88,
        89,
        90,
        91,
        92,
        93,
        94,
        95,
        96,
        97,
        98,
        99,
        100,
        101,
        102,
        103,
        104,
        105,
        106,
        107,
        108,
        109,
        110,
        111,
        112,
        113,
        114,
        115,
        116,
        117,
        118,
        119,
        120,
        121,
        122,
        123,
        124,
        125,
        126,
        127,
        128,
        129,
        130,
        131,
        132,
        133,
        134,
        135,
        136,
        137,
        138,
        139,
        140,
        141,
        142,
        143,
        144,
        145,
        146,
        147,
        148,
        149,
        150,
        151,
        152,
        153,
        154,
        155,
        156,
        157,
        158,
        159,
        160,
        161,
        162,
        163,
        164,
        165,
        166,
        167,
        168,
        169,
        170,
        171,
        172,
        173,
        174,
        175,
        176,
        177,
        178,
        179,
        180,
        181,
        182,
        183,
        184,
        185,
        186,
        187,
        188,
        189,
        190,
        191,
        192,
        193,
        194,
        195,
        196,
        197,
        198,
        199,
        200,
        201,
        202,
        203,
        204,
        205,
        206,
        207,
        208,
        209,
        210,
        211,
        212,
        213,
        214,
        215,
        216,
        217,
        218,
        219,
        220,
        221,
        222,
        223,
        224,
        225,
        226,
        227,
        228,
        229,
        230,
        231,
        232,
        233,
        234,
        235,
        236,
        237,
        238,
        239,
        240,
        241,
        242,
        243,
        244,
        245,
        246,
        247,
        248,
        249,
        250,
        251,
        252,
        253,
        254,
        255,
        256,
        257,
        258,
        259,
        260,
        261,
        262,
        263,
        264,
        265,
        266,
        267,
        268,
        269,
        270,
        271,
        272,
        273,
        274,
        275,
        276,
        277,
        278,
        279,
        280,
        281,
        282,
        283,
        284,
        285,
        286,
        287,
        288
      ],
      "AcquisitionTime": [
        "101542.327500",
        "101543.327500",
        "101544.327500",
        "101545.327500",
        "101546.327500",
        "101547.327500",
        "101548.327500",
        "101549.327500",
        "101550.327500",
        "101551.327500",
        "101552.327500",
        "101553.327500",
        "101554.327500",
        "101555.327500",
        "101556.327500",
        "101557.327500",
        "101558.327500",
        "101559.327500",
        "101600.327500",
        "101601.327500",
        "101602.327500",
        "101603.327500",
        "101604.327500",
        "101605.327500",
        "101606.327500",
        "101607.327500",
        "101608.327500",
        "101609.327500",
        "101610.327500",
        "101611.327500",
        "101612.327500",
        "101613.327500",
        "101614.327500",
        "101615.327500",
        "101616.327500",
        "101617.327500",
        "101618.327500",
        "101619.327500",
        "101620.327500",
        "101621.327500",
        "101622.327500",
        "101623.327500",
        "101624.327500",
        "101625.327500",
        "101626.327500",
        "101627.327500",
        "101628.327500",
        "101629.327500",
        "101630.327500",
        "101631.327500",
        "101632.327500",
        "101633.327500",
        "101634.327500",
        "101635.327500",
        "101636.327500",
        "101637.327500",
        "101638.327500",
        "101639.327500",
        "101640.327500",
        "101641.327500",
        "101642.327500",
        "101643.327500",
        "101644.327500",
        "101645.327500",
        "101646.327500",
        "101647.327500",
        "101648.327500",
        "101649.327500",
        "101650.327500",
        "101651.327500",
        "101652.327500",
        "101653.327500",
        "101654.327500",
        "101655.327500",
        "101656.327500",
        "101657.327500",
        "101658.327500",
        "101659.327500",
        "101700.327500",
        "101701.327500",
        "101702.327500",
        "101703.327500",
        "101704.327500",
        "101705.327500",
        "101706.327500",
        "101707.327500",
        "101708.327500",
        "101709.327500",
        "101710.327500",
        "101711.327500",
        "101712.327500",
        "101713.327500",
        "101714.327500",
        "101715.327500",
        "101716.327500",
        "101717.327500",
        "101718.327500",
        "101719.327500",
        "101720.327500",
        "101721.327500",
        "101722.327500",
        "101723.327500",
        "101724.327500",
        "101725.327500",
        "101726.327500",
        "101727.327500",
        "101728.327500",
        "101729.327500",
        "101730.327500",
        "101731.327500",
        "101732.327500",
        "101733.327500",
        "101734.327500",
        "101735.327500",
        "101736.327500",
        "101737.327500",
        "101738.327500",
        "101739.327500",
        "101740.327500",
        "101741.327500",
        "101742.327500",
        "101743.327500",
        "101744.327500",
        "101745.327500",
        "101746.327500",
        "101747.327500",
        "101748.327500",
        "101749.327500",
        "101750.327500",
        "101751.327500",
        "101752.327500",
        "101753.327500",
        "101754.327500",
        "101755.327500",
        "101756.327500",
        "101757.327500",
        "101758.327500",
        "101759.327500",
        "101800.327500",
        "101801.327500",
        "101802.327500",
        "101803.327500",
        "101804.327500",
        "101805.327500",
        "101806.327500",
        "101807.327500",
        "101808.327500",
        "101809.327500",
        "101810.327500",
        "101811.327500",
        "101812.327500",
        "101813.327500",
        "101814.327500",
        "101815.327500",
        "101816.327500",
        "101817.327500",
        "101818.327500",
        "101819.327500",
        "101820.327500",
        "101821.327500",
        "101822.327500",
        "101823.327500",
        "101824.327500",
        "101825.327500",
        "101826.327500",
        "101827.327500",
        "101828.327500",
        "101829.327500",
        "101830.327500",
        "101831.327500",
        "101832.327500",
        "101833.327500",
        "101834.327500",
        "101835.327500",
        "101836.327500",
        "101837.327500",
        "101838.327500",
        "101839.327500",
        "101840.327500",
        "101841.327500",
        "101842.327500",
        "101843.327500",
        "101844.327500",
        "101845.327500",
        "101846.327500",
        "101847.327500",
        "101848.327500",
        "101849.327500",
        "101850.327500",
        "101851.327500",
        "101852.327500",
        "101853.327500",
        "101854.327500",
        "101855.327500",
        "101856.327500",
        "101857.327500",
        "101858.327500",
        "101859.327500",
        "101900.327500",
        "101901.327500",
        "101902.327500",
        "101903.327500",
        "101904.327500",
        "101905.327500",
        "101906.327500",
        "101907.327500",
        "101908.327500",
        "101909.327500",
        "101910.327500",
        "101911.327500",
        "101912.327500",
        "101913.327500",
        "101914.327500",
        "101915.327500",
        "101916.327500",
        "101917.327500",
        "101918.327500",
        "101919.327500",
        "101920.327500",
        "101921.327500",
        "101922.327500",
        "101923.327500",
        "101924.327500",
        "101925.327500",
        "101926.327500",
        "101927.327500",
        "101928.327500",
        "101929.327500",
        "101930.327500",
        "101931.327500",
        "101932.327500",
        "101933.327500",
        "101934.327500",
        "101935.327500",
        "101936.327500",
        "101937.327500",
        "101938.327500",
        "101939.327500",
        "101940.327500",
        "101941.327500",
        "101942.327500",
        "101943.327500",
        "101944.327500",
        "101945.327500",
        "101946.327500",
        "101947.327500",
        "101948.327500",
        "101949.327500",
        "101950.327500",
        "101951.327500",
        "101952.327500",
        "101953.327500",
        "101954.327500",
        "101955.327500",
        "101956.327500",
        "101957.327500",
        "101958.327500",
        "101959.327500",
        "102000.327500",
        "102001.327500",
        "102002.327500",
        "102003.327500",
        "102004.327500",
        "102005.327500",
        "102006.327500",
        "102007.327500",
        "102008.327500",
        "102009.327500",
        "102010.327500",
        "102011.327500",
        "102012.327500",
        "102013.327500",
        "102014.327500",
        "102015.327500",
        "102016.327500",
        "102017.327500",
        "102018.327500",
        "102019.327500",
        "102020.327500",
        "102021.327500",
        "102022.327500",
        "102023.327500",
        "102024.327500",
        "102025.327500",
        "102026.327500",
        "102027.327500",
        "102028.327500",
        "102029.327500"
      ],
      "ContentTime": [
        "101543.665000",
        "101544.503000",
        "101545.500000",
        "101546.532000",
        "101547.532000",
        "101548.544000",
        "101549.530000",
        "101550.537000",
        "101551.528000",
        "101552.531000",
        "101553.525000",
        "101554.503000",
        "101555.521000",
        "101556.528000",
        "101557.521000",
        "101558.512000",
        "101559.521000",
        "101600.514000",
        "101601.484000",
        "101602.504000",
        "101603.500000",
        "101604.514000",
        "101605.526000",
        "101606.516000",
        "101607.528000",
        "101608.542000",
        "101609.525000",
        "101610.522000",
        "101611.523000",
        "101612.519000",
        "101613.496000",
        "101614.533000",
        "101615.519000",
        "101616.542000",
        "101617.530000",
        "101618.534000",
        "101619.532000",
        "101620.541000",
        "101621.536000",
        "101622.513000",
        "101623.524000",
        "101624.539000",
        "101625.523000",
        "101626.519000",
        "101627.518000",
        "101628.529000",
        "101629.486000",
        "101630.541000",
        "101631.515000",
        "101632.519000",
        "101633.540000",
        "101634.520000",
        "101635.507000",
        "101636.574000",
        "101637.516000",
        "101638.593000",
        "101639.508000",
        "101640.508000",
        "101641.546000",
        "101642.553000",
        "101643.518000",
        "101644.562000",
        "101645.502000",
        "101646.523000",
        "101647.532000",
        "101648.530000",
        "101649.508000",
        "101650.530000",
        "101651.509000",
        "101652.554000",
        "101653.561000",
        "101654.516000",
        "101655.525000",
        "101656.493000",
        "101657.526000",
        "101658.543000",
        "101659.498000",
        "101700.548000",
        "101701.511000",
        "101702.497000",
        "101703.564000",
        "101704.505000",
        "101705.564000",
        "101706.508000",
        "101707.513000",
        "101708.512000",
        "101709.541000",
        "101710.562000",
        "101711.529000",
        "101712.534000",
        "101713.498000",
        "101714.559000",
        "101715.522000",
        "101716.511000",
        "101717.530000",
        "101718.532000",
        "101719.513000",
        "101720.533000",
        "101721.548000",
        "101722.524000",
        "101723.540000",
        "101724.534000",
        "101725.528000",
        "101726.540000",
        "101727.541000",
        "101728.506000",
        "101729.534000",
        "101730.609000",
        "101731.521000",
        "101732.509000",
        "101733.545000",
        "101734.513000",
        "101735.492000",
        "101736.525000",
        "101737.538000",
        "101738.527000",
        "101739.518000",
        "101740.541000",
        "101741.529000",
        "101742.520000",
        "101743.528000",
        "101744.531000",
        "101745.542000",
        "101746.525000",
        "101747.539000",
        "101748.529000",
        "101749.524000",
        "101750.548000",
        "101751.547000",
        "101752.519000",
        "101753.573000",
        "101754.611000",
        "101755.564000",
        "101756.516000",
        "101757.524000",
        "101758.510000",
        "101759.511000",
        "101800.523000",
        "101801.529000",
        "101802.532000",
        "101803.541000",
        "101804.514000",
        "101805.506000",
        "101806.508000",
        "101807.547000",
        "101808.528000",
        "101809.500000",
        "101810.539000",
        "101811.542000",
        "101812.581000",
        "101813.507000",
        "101814.532000",
        "101815.508000",
        "101816.531000",
        "101817.508000",
        "101818.544000",
        "101819.501000",
        "101820.574000",
        "101821.484000",
        "101822.529000",
        "101823.517000",
        "101824.521000",
        "101825.531000",
        "101826.511000",
        "101827.519000",
        "101828.533000",
        "101829.535000",
        "101830.521000",
        "101831.520000",
        "101832.499000",
        "101833.544000",
        "101834.523000",
        "101835.519000",
        "101836.518000",
        "101837.521000",
        "101838.504000",
        "101839.519000",
        "101840.524000",
        "101841.588000",
        "101842.547000",
        "101843.506000",
        "101844.515000",
        "101845.512000",
        "101846.537000",
        "101847.539000",
        "101848.510000",
        "101849.526000",
        "101850.498000",
        "101851.527000",
        "101852.506000",
        "101853.559000",
        "101854.531000",
        "101855.540000",
        "101856.522000",
        "101857.485000",
        "101858.546000",
        "101859.525000",
        "101900.531000",
        "101901.536000",
        "101902.544000",
        "101903.525000",
        "101904.513000",
        "101905.566000",
        "101906.532000",
        "101907.550000",
        "101908.516000",
        "101909.536000",
        "101910.540000",
        "101911.519000",
        "101912.536000",
        "101913.519000",
        "101914.518000",
        "101915.563000",
        "101916.533000",
        "101917.532000",
        "101918.539000",
        "101919.521000",
        "101920.510000",
        "101921.508000",
        "101922.529000",
        "101923.529000",
        "101924.515000",
        "101925.529000",
        "101926.540000",
        "101927.522000",
        "101928.513000",
        "101929.510000",
        "101930.527000",
        "101931.533000",
        "101932.509000",
        "101933.554000",
        "101934.527000",
        "101935.519000",
        "101936.526000",
        "101937.507000",
        "101938.520000",
        "101939.519000",
        "101940.512000",
        "101941.573000",
        "101942.544000",
        "101943.516000",
        "101944.513000",
        "101945.538000",
        "101946.574000",
        "101947.501000",
        "101948.522000",
        "101949.501000",
        "101950.520000",
        "101951.490000",
        "101952.524000",
        "101953.542000",
        "101954.569000",
        "101955.501000",
        "101956.510000",
        "101957.516000",
        "101958.513000",
        "101959.503000",
        "102000.532000",
        "102001.525000",
        "102002.489000",
        "102003.552000",
        "102004.534000",
        "102005.524000",
        "102006.517000",
        "102007.527000",
        "102008.539000",
        "102009.515000",
        "102010.539000",
        "102011.495000",
        "102012.550000",
        "102013.528000",
        "102014.540000",
        "102015.510000",
        "102016.517000",
        "102017.512000",
        "102018.529000",
        "102019.481000",
        "102020.532000",
        "102021.530000",
        "102022.525000",
        "102023.501000",
        "102024.535000",
        "102025.529000",
        "102026.529000",
        "102027.522000",
        "102028.541000",
        "102029.515000",
        "102030.553000"
      ],
      "InstanceCreationTime": [
        "101543.665000",
        "101544.503000",
        "101545.500000",
        "101546.532000",
        "101547.532000",
        "101548.544000",
        "101549.530000",
        "101550.537000",
        "101551.528000",
        "101552.531000",
        "101553.525000",
        "101554.503000",
        "101555.521000",
        "101556.528000",
        "101557.521000",
        "101558.512000",
        "101559.521000",
        "101600.514000",
        "101601.484000",
        "101602.504000",
        "101603.500000",
        "101604.514000",
        "101605.526000",
        "101606.516000",
        "101607.528000",
        "101608.542000",
        "101609.525000",
        "101610.522000",
        "101611.523000",
        "101612.519000",
        "101613.496000",
        "101614.533000",
        "101615.519000",
        "101616.542000",
        "101617.530000",
        "101618.534000",
        "101619.532000",
        "101620.541000",
        "101621.536000",
        "101622.513000",
        "101623.524000",
        "101624.539000",
        "101625.523000",
        "101626.519000",
        "101627.518000",
        "101628.529000",
        "101629.486000",
        "101630.541000",
        "101631.515000",
        "101632.519000",
        "101633.540000",
        "101634.520000",
        "101635.507000",
        "101636.574000",
        "101637.516000",
        "101638.593000",
        "101639.508000",
        "101640.508000",
        "101641.546000",
        "101642.553000",
        "101643.518000",
        "101644.562000",
        "101645.502000",
        "101646.523000",
        "101647.532000",
        "101648.530000",
        "101649.508000",
        "101650.530000",
        "101651.509000",
        "101652.554000",
        "101653.561000",
        "101654.516000",
        "101655.525000",
        "101656.493000",
        "101657.526000",
        "101658.543000",
        "101659.498000",
        "101700.548000",
        "101701.511000",
        "101702.497000",
        "101703.564000",
        "101704.505000",
        "101705.564000",
        "101706.508000",
        "101707.513000",
        "101708.512000",
        "101709.541000",
        "101710.562000",
        "101711.529000",
        "101712.534000",
        "101713.498000",
        "101714.559000",
        "101715.522000",
        "101716.511000",
        "101717.530000",
        "101718.532000",
        "101719.513000",
        "101720.533000",
        "101721.548000",
        "101722.524000",
        "101723.540000",
        "101724.534000",
        "101725.528000",
        "101726.540000",
        "101727.541000",
        "101728.506000",
        "101729.534000",
        "101730.609000",
        "101731.521000",
        "101732.509000",
        "101733.545000",
        "101734.513000",
        "101735.492000",
        "101736.525000",
        "101737.538000",
        "101738.527000",
        "101739.518000",
        "101740.541000",
        "101741.529000",
        "101742.520000",
        "101743.528000",
        "101744.531000",
        "101745.542000",
        "101746.525000",
        "101747.539000",
        "101748.529000",
        "101749.524000",
        "101750.548000",
        "101751.547000",
        "101752.519000",
        "101753.573000",
        "101754.611000",
        "101755.564000",
        "101756.516000",
        "101757.524000",
        "101758.510000",
        "101759.511000",
        "101800.523000",
        "101801.529000",
        "101802.532000",
        "101803.541000",
        "101804.514000",
        "101805.506000",
        "101806.508000",
        "101807.547000",
        "101808.528000",
        "101809.500000",
        "101810.539000",
        "101811.542000",
        "101812.581000",
        "101813.507000",
        "101814.532000",
        "101815.508000",
        "101816.531000",
        "101817.508000",
        "101818.544000",
        "101819.501000",
        "101820.574000",
        "101821.484000",
        "101822.529000",
        "101823.517000",
        "101824.521000",
        "101825.531000",
        "101826.511000",
        "101827.519000",
        "101828.533000",
        "101829.535000",
        "101830.521000",
        "101831.520000",
        "101832.499000",
        "101833.544000",
        "101834.523000",
        "101835.519000",
        "101836.518000",
        "101837.521000",
        "101838.504000",
        "101839.519000",
        "101840.524000",
        "101841.588000",
        "101842.547000",
        "101843.506000",
        "101844.515000",
        "101845.512000",
        "101846.537000",
        "101847.539000",
        "101848.510000",
        "101849.526000",
        "101850.498000",
        "101851.527000",
        "101852.506000",
        "101853.559000",
        "101854.531000",
        "101855.540000",
        "101856.522000",
        "101857.485000",
        "101858.546000",
        "101859.525000",
        "101900.531000",
        "101901.536000",
        "101902.544000",
        "101903.525000",
        "101904.513000",
        "101905.566000",
        "101906.532000",
        "101907.550000",
        "101908.516000",
        "101909.536000",
        "101910.540000",
        "101911.519000",
        "101912.536000",
        "101913.519000",
        "101914.518000",
        "101915.563000",
        "101916.533000",
        "101917.532000",
        "101918.539000",
        "101919.521000",
        "101920.510000",
        "101921.508000",
        "101922.529000",
        "101923.529000",
        "101924.515000",
        "101925.529000",
        "101926.540000",
        "101927.522000",
        "101928.513000",
        "101929.510000",
        "101930.527000",
        "101931.533000",
        "101932.509000",
        "101933.554000",
        "101934.527000",
        "101935.519000",
        "101936.526000",
        "101937.507000",
        "101938.520000",
        "101939.519000",
        "101940.512000",
        "101941.573000",
        "101942.544000",
        "101943.516000",
        "101944.513000",
        "101945.538000",
        "101946.574000",
        "101947.501000",
        "101948.522000",
        "101949.501000",
        "101950.520000",
        "101951.490000",
        "101952.524000",
        "101953.542000",
        "101954.569000",
        "101955.501000",
        "101956.510000",
        "101957.516000",
        "101958.513000",
        "101959.503000",
        "102000.532000",
        "102001.525000",
        "102002.489000",
        "102003.552000",
        "102004.534000",
        "102005.524000",
        "102006.517000",
        "102007.527000",
        "102008.539000",
        "102009.515000",
        "102010.539000",
        "102011.495000",
        "102012.550000",
        "102013.528000",
        "102014.540000",
        "102015.510000",
        "102016.517000",
        "102017.512000",
        "102018.529000",
        "102019.481000",
        "102020.532000",
        "102021.530000",
        "102022.525000",
        "102023.501000",
        "102024.535000",
        "102025.529000",
        "102026.529000",
        "102027.522000",
        "102028.541000",
        "102029.515000",
        "102030.553000"
      ],
      "InstanceNumber": [
        1,
        2,
        3,
        4,
        5,
        6,
        7,
        8,
        9,
        10,
        11,
        12,
        13,
        14,
        15,
        16,
        17,
        18,
        19,
        20,
        21,
        22,
        23,
        24,
        25,
        26,
        27,
        28,
        29,
        30,
        31,
        32,
        33,
        34,
        35,
        36,
        37,
        38,
        39,
        40,
        41,
        42,
        43,
        44,
        45,
        46,
        47,
        48,
        49,
        50,
        51,
        52,
        53,
        54,
        55,
        56,
        57,
        58,
        59,
        60,
        61,
        62,
        63,
        64,
        65,
        66,
        67,
        68,
        69,
        70,
        71,
        72,
        73,
        74,
        75,
        76,
        77,
        78,
        79,
        80,
        81,
        82,
        83,
        84,
        85,
        86,
        87,
        88,
        89,
        90,
        91,
        92,
        93,
        94,
        95,
        96,
        97,
        98,
        99,
        100,
        101,
        102,
        103,
        104,
        105,
        106,
        107,
        108,
        109,
        110,
        111,
        112,
        113,
        114,
        115,
        116,
        117,
        118,
        119,
        120,
        121,
        122,
        123,
        124,
        125,
        126,
        127,
        128,
        129,
        130,
        131,
        132,
        133,
        134,
        135,
        136,
        137,
        138,
        139,
        140,
        141,
        142,
        143,
        144,
        145,
        146,
        147,
        148,
        149,
        150,
        151,
        152,
        153,
        154,
        155,
