{
  "AcquisitionMatrixPE": 96,
  "AcquisitionNumber": 1,
  "AcquisitionTime": "11:17:54.952500",
  "BandwidthPerPixelPhaseEncode": 18.939,
  "BaseResolution": 96,
  "BodyPartExamined": "BRAIN",
  "ConsistencyInfo": "N4_VE11C_LATEST_20160120",
  "ConversionSoftware": "dcm2niix",
  "ConversionSoftwareVersion": "v1.0.20171215 (OpenJPEG build) GCC6.3.0",
  "DerivedVendorReportedEchoSpacing": 0.000550011,
  "DeviceSerialNumber": "66112",
  "DwellTime": 2.2e-06,
  "EchoTime": 0.033,
  "EchoTrainLength": 96,
  "EffectiveEchoSpacing": 0.000550011,
  "FlipAngle": 59,
  "ImageOrientationPatientDICOM": [
    0.997804,
    0.0376825,
    0.0544664,
    -0.0290912,
    0.98815,
    -0.150709
  ],
  "ImageType": [
    "ORIGINAL",
    "PRIMARY",
    "FMRI",
    "NONE",
    "ND",
    "NORM",
    "MOSAIC"
  ],
  "InPlanePhaseEncodingDirectionDICOM": "COL",
  "InstitutionAddress": "Maynard_3_Hanover_NH_US_03755",
  "InstitutionName": "Dartmouth_College_-_PBS",
  "InstitutionalDepartmentName": "Department",
  "MRAcquisitionType": "2D",
  "MagneticFieldStrength": 3,
  "Manufacturer": "Siemens",
  "ManufacturersModelName": "Prisma",
  "Modality": "MR",
  "MultibandAccelerationFactor": 4,
  "PatientPosition": "HFS",
  "PercentPhaseFOV": 100,
  "PhaseEncodingDirection": "j-",
  "PhaseEncodingSteps": 96,
  "PhaseResolution": 1,
  "PixelBandwidth": 2365,
  "ProcedureStepDescription": "Gobbini_Matteo_1038_hyperface",
  "ProtocolName": "func_run-03_task-visualmemory",
  "PulseSequenceDetails": "%SiemensSeq%_ep2d_bold",
  "ReceiveCoilActiveElements": "HEA;HEP",
  "ReceiveCoilName": "Head_32",
  "ReconMatrixPE": 96,
  "RepetitionTime": 1,
  "SAR": 0.0506095,
  "ScanOptions": "FS",
  "ScanningSequence": "EP",
  "SequenceName": "_epfid2d1_96",
  "SequenceVariant": "SK",
  "SeriesDescription": "func_run-03_task-visualmemory",
  "SeriesNumber": 21,
  "ShimSetting": [
    4146,
    -7686,
    -7320,
    721,
    -33,
    -135,
    -83,
    61
  ],
  "SliceThickness": 2.5,
  "SliceTiming": [
    0.735,
    0,
    0.49,
    0.0825,
    0.5725,
    0.165,
    0.655,
    0.3275,
    0.8175,
    0.41,
    0.9,
    0.245,
    0.735,
    0,
    0.49,
    0.0825,
    0.5725,
    0.165,
    0.655,
    0.3275,
    0.8175,
    0.41,
    0.9,
    0.245,
    0.735,
    0,
    0.49,
    0.0825,
    0.5725,
    0.165,
    0.655,
    0.3275,
    0.8175,
    0.41,
    0.9,
    0.245,
    0.735,
    0,
    0.49,
    0.0825,
    0.5725,
    0.165,
    0.655,
    0.3275,
    0.8175,
    0.41,
    0.9,
    0.245
  ],
  "SoftwareVersions": "syngo_MR_E11",
  "SpacingBetweenSlices": 2.5,
  "StationName": "AWP66112",
  "TotalReadoutTime": 0.0522511,
  "TxRefAmp": 234.056,
  "dcmmeta_affine": [
    [
      -2.4945108890533447,
      -0.07272811979055405,
      0.1487501561641693,
      123.3690414428711
    ],
    [
      -0.09420626610517502,
      2.4703750610351562,
      -0.37198492884635925,
      -100.51276397705078
    ],
    [
      0.13616596162319183,
      0.3767734467983246,
      2.467691421508789,
      -94.41930389404297
    ],
    [
      0.0,
      0.0,
      0.0,
      1.0
    ]
  ],
  "dcmmeta_reorient_transform": [
    [
      0.0,
      -1.0,
      0.0,
      95.0
    ],
    [
      1.0,
      0.0,
      0.0,
      0.0
    ],
    [
      0.0,
      0.0,
      1.0,
      0.0
    ],
    [
      0.0,
      0.0,
      0.0,
      1.0
    ]
  ],
  "dcmmeta_shape": [
    96,
    96,
    48,
    288
  ],
  "dcmmeta_slice_dim": 2,
  "dcmmeta_version": 0.6,
  "global": {
    "const": {
      "AccessionNumber": "A001340",
      "AcquisitionMatrix": [
        96,
        0,
        0,
        96
      ],
      "AngioFlag": "N",
      "BitsAllocated": 16,
      "BitsStored": 12,
      "BodyPartExamined": "BRAIN",
      "Columns": 672,
      "EchoNumbers": 1,
      "EchoTime": 33.0,
      "EchoTrainLength": 96,
      "FlipAngle": 59.0,
      "HighBit": 11,
      "ImageOrientationPatient": [
        0.99780431020281,
        0.03768250512379,
        0.05446638732555,
        -0.0290912465089,
        0.98814997946375,
        -0.1507093808041
      ],
      "ImagePositionPatient": [
        -813.93327365853,
        -872.77224409241,
        10.669126728986
      ],
      "ImageType": [
        "ORIGINAL",
        "PRIMARY",
        "FMRI",
        "NONE",
        "ND",
        "NORM",
        "MOSAIC"
      ],
      "ImagedNucleus": "1H",
      "ImagingFrequency": 123.252297,
      "InPlanePhaseEncodingDirection": "COL",
      "MRAcquisitionType": "2D",
      "MagneticFieldStrength": 3.0,
      "Manufacturer": "SIEMENS",
      "ManufacturerModelName": "Prisma",
      "Modality": "MR",
      "NumberOfAverages": 1.0,
      "NumberOfPhaseEncodingSteps": 96,
      "PercentPhaseFieldOfView": 100.0,
      "PercentSampling": 100.0,
      "PerformedProcedureStepStartTime": "105554.137000",
      "PhotometricInterpretation": "MONOCHROME2",
      "PixelBandwidth": 2365.0,
      "PixelRepresentation": 0,
      "PixelSpacing": [
        2.5,
        2.5
      ],
      "PositionReferenceIndicator": "",
      "ProtocolName": "func_run-03_task-visualmemory",
      "RepetitionTime": 1000.0,
      "Rows": 672,
      "SAR": 0.05060948682152,
      "SamplesPerPixel": 1,
      "ScanOptions": "FS",
      "ScanningSequence": "EP",
      "SequenceName": "*epfid2d1_96",
      "SequenceVariant": "SK",
      "SeriesDescription": "func_run-03_task-visualmemory",
      "SeriesNumber": 21,
      "SeriesTime": "111756.527000",
      "SliceLocation": -70.902922538338,
      "SliceThickness": 2.5,
      "SmallestImagePixelValue": 0,
      "SoftwareVersions": "syngo MR E11",
      "SpacingBetweenSlices": 2.4999999527747,
      "SpecificCharacterSet": "ISO_IR 100",
      "StudyID": "3",
      "StudyTime": "105554.052000",
      "TransmitCoilName": "Body",
      "VariableFlipAngleFlag": "N",
      "WindowCenterWidthExplanation": "Algo1",
      "dBdt": 0.0
    },
    "slices": {}
  },
  "time": {
    "samples": {
      "AcquisitionNumber": [
        1,
        2,
        3,
        4,
        5,
        6,
        7,
        8,
        9,
        10,
        11,
        12,
        13,
        14,
        15,
        16,
        17,
        18,
        19,
        20,
        21,
        22,
        23,
        24,
        25,
        26,
        27,
        28,
        29,
        30,
        31,
        32,
        33,
        34,
        35,
        36,
        37,
        38,
        39,
        40,
        41,
        42,
        43,
        44,
        45,
        46,
        47,
        48,
        49,
        50,
        51,
        52,
        53,
        54,
        55,
        56,
        57,
        58,
        59,
        60,
        61,
        62,
        63,
        64,
        65,
        66,
        67,
        68,
        69,
        70,
        71,
        72,
        73,
        74,
        75,
        76,
        77,
        78,
        79,
        80,
        81,
        82,
        83,
        84,
        85,
        86,
        87,
        88,
        89,
        90,
        91,
        92,
        93,
        94,
        95,
        96,
        97,
        98,
        99,
        100,
        101,
        102,
        103,
        104,
        105,
        106,
        107,
        108,
        109,
        110,
        111,
        112,
        113,
        114,
        115,
        116,
        117,
        118,
        119,
        120,
        121,
        122,
        123,
        124,
        125,
        126,
        127,
        128,
        129,
        130,
        131,
        132,
        133,
        134,
        135,
        136,
        137,
        138,
        139,
        140,
        141,
        142,
        143,
        144,
        145,
        146,
        147,
        148,
        149,
        150,
        151,
        152,
        153,
        154,
        155,
        156,
        157,
        158,
        159,
        160,
        161,
        162,
        163,
        164,
        165,
        166,
        167,
        168,
        169,
        170,
        171,
        172,
        173,
        174,
        175,
        176,
        177,
        178,
        179,
        180,
        181,
        182,
        183,
        184,
        185,
        186,
        187,
        188,
        189,
        190,
        191,
        192,
        193,
        194,
        195,
        196,
        197,
        198,
        199,
        200,
        201,
        202,
        203,
        204,
        205,
        206,
        207,
        208,
        209,
        210,
        211,
        212,
        213,
        214,
        215,
        216,
        217,
        218,
        219,
        220,
        221,
        222,
        223,
        224,
        225,
        226,
        227,
        228,
        229,
        230,
        231,
        232,
        233,
        234,
        235,
        236,
        237,
        238,
        239,
        240,
        241,
        242,
        243,
        244,
        245,
        246,
        247,
        248,
        249,
        250,
        251,
        252,
        253,
        254,
        255,
        256,
        257,
        258,
        259,
        260,
        261,
        262,
        263,
        264,
        265,
        266,
        267,
        268,
        269,
        270,
        271,
        272,
        273,
        274,
        275,
        276,
        277,
        278,
        279,
        280,
        281,
        282,
        283,
        284,
        285,
        286,
        287,
        288
      ],
      "AcquisitionTime": [
        "111754.952500",
        "111755.952500",
        "111756.952500",
        "111757.952500",
        "111758.952500",
        "111759.952500",
        "111800.952500",
        "111801.952500",
        "111802.952500",
        "111803.952500",
        "111804.952500",
        "111805.952500",
        "111806.952500",
        "111807.952500",
        "111808.952500",
        "111809.952500",
        "111810.952500",
        "111811.952500",
        "111812.952500",
        "111813.952500",
        "111814.952500",
        "111815.952500",
        "111816.952500",
        "111817.952500",
        "111818.952500",
        "111819.952500",
        "111820.952500",
        "111821.952500",
        "111822.952500",
        "111823.952500",
        "111824.952500",
        "111825.952500",
        "111826.952500",
        "111827.952500",
        "111828.952500",
        "111829.952500",
        "111830.952500",
        "111831.952500",
        "111832.952500",
        "111833.952500",
        "111834.952500",
        "111835.952500",
        "111836.952500",
        "111837.952500",
        "111838.952500",
        "111839.952500",
        "111840.952500",
        "111841.952500",
        "111842.952500",
        "111843.952500",
        "111844.952500",
        "111845.952500",
        "111846.952500",
        "111847.952500",
        "111848.952500",
        "111849.952500",
        "111850.952500",
        "111851.952500",
        "111852.952500",
        "111853.952500",
        "111854.952500",
        "111855.952500",
        "111856.952500",
        "111857.952500",
        "111858.952500",
        "111859.952500",
        "111900.952500",
        "111901.952500",
        "111902.952500",
        "111903.952500",
        "111904.952500",
        "111905.952500",
        "111906.952500",
        "111907.952500",
        "111908.952500",
        "111909.952500",
        "111910.952500",
        "111911.952500",
        "111912.952500",
        "111913.952500",
        "111914.952500",
        "111915.952500",
        "111916.952500",
        "111917.952500",
        "111918.952500",
        "111919.952500",
        "111920.952500",
        "111921.952500",
        "111922.952500",
        "111923.952500",
        "111924.952500",
        "111925.952500",
        "111926.952500",
        "111927.952500",
        "111928.952500",
        "111929.952500",
        "111930.952500",
        "111931.952500",
        "111932.952500",
        "111933.952500",
        "111934.952500",
        "111935.952500",
        "111936.952500",
        "111937.952500",
        "111938.952500",
        "111939.952500",
        "111940.952500",
        "111941.952500",
        "111942.952500",
        "111943.952500",
        "111944.952500",
        "111945.952500",
        "111946.952500",
        "111947.952500",
        "111948.952500",
        "111949.952500",
        "111950.952500",
        "111951.952500",
        "111952.952500",
        "111953.952500",
        "111954.952500",
        "111955.952500",
        "111956.952500",
        "111957.952500",
        "111958.952500",
        "111959.952500",
        "112000.952500",
        "112001.952500",
        "112002.952500",
        "112003.952500",
        "112004.952500",
        "112005.952500",
        "112006.952500",
        "112007.952500",
        "112008.952500",
        "112009.952500",
        "112010.952500",
        "112011.952500",
        "112012.952500",
        "112013.952500",
        "112014.952500",
        "112015.952500",
        "112016.952500",
        "112017.952500",
        "112018.952500",
        "112019.952500",
        "112020.952500",
        "112021.952500",
        "112022.952500",
        "112023.952500",
        "112024.952500",
        "112025.952500",
        "112026.952500",
        "112027.952500",
        "112028.952500",
        "112029.952500",
        "112030.952500",
        "112031.952500",
        "112032.952500",
        "112033.952500",
        "112034.952500",
        "112035.952500",
        "112036.952500",
        "112037.952500",
        "112038.952500",
        "112039.952500",
        "112040.952500",
        "112041.952500",
        "112042.952500",
        "112043.952500",
        "112044.952500",
        "112045.952500",
        "112046.952500",
        "112047.952500",
        "112048.952500",
        "112049.952500",
        "112050.952500",
        "112051.952500",
        "112052.952500",
        "112053.952500",
        "112054.952500",
        "112055.952500",
        "112056.952500",
        "112057.952500",
        "112058.952500",
        "112059.952500",
        "112100.952500",
        "112101.952500",
        "112102.952500",
        "112103.952500",
        "112104.952500",
        "112105.952500",
        "112106.952500",
        "112107.952500",
        "112108.952500",
        "112109.952500",
        "112110.952500",
        "112111.952500",
        "112112.952500",
        "112113.952500",
        "112114.952500",
        "112115.952500",
        "112116.952500",
        "112117.952500",
        "112118.952500",
        "112119.952500",
        "112120.952500",
        "112121.952500",
        "112122.952500",
        "112123.952500",
        "112124.952500",
        "112125.952500",
        "112126.952500",
        "112127.952500",
        "112128.952500",
        "112129.952500",
        "112130.952500",
        "112131.952500",
        "112132.952500",
        "112133.952500",
        "112134.952500",
        "112135.952500",
        "112136.952500",
        "112137.952500",
        "112138.952500",
        "112139.952500",
        "112140.952500",
        "112141.952500",
        "112142.952500",
        "112143.952500",
        "112144.952500",
        "112145.952500",
        "112146.952500",
        "112147.952500",
        "112148.952500",
        "112149.952500",
        "112150.952500",
        "112151.952500",
        "112152.952500",
        "112153.952500",
        "112154.952500",
        "112155.952500",
        "112156.952500",
        "112157.952500",
        "112158.952500",
        "112159.952500",
        "112200.952500",
        "112201.952500",
        "112202.952500",
        "112203.952500",
        "112204.952500",
        "112205.952500",
        "112206.952500",
        "112207.952500",
        "112208.952500",
        "112209.952500",
        "112210.952500",
        "112211.952500",
        "112212.952500",
        "112213.952500",
        "112214.952500",
        "112215.952500",
        "112216.952500",
        "112217.952500",
        "112218.952500",
        "112219.952500",
        "112220.952500",
        "112221.952500",
        "112222.952500",
        "112223.952500",
        "112224.952500",
        "112225.952500",
        "112226.952500",
        "112227.952500",
        "112228.952500",
        "112229.952500",
        "112230.952500",
        "112231.952500",
        "112232.952500",
        "112233.952500",
        "112234.952500",
        "112235.952500",
        "112236.952500",
        "112237.952500",
        "112238.952500",
        "112239.952500",
        "112240.952500",
        "112241.952500"
      ],
      "ContentTime": [
        "111756.531000",
        "111757.362000",
        "111758.347000",
        "111759.363000",
        "111800.350000",
        "111801.342000",
        "111802.358000",
        "111803.361000",
        "111804.357000",
        "111805.338000",
        "111806.351000",
        "111807.373000",
        "111808.360000",
        "111809.345000",
        "111810.343000",
        "111811.373000",
        "111812.367000",
        "111813.369000",
        "111814.362000",
        "111815.359000",
        "111816.364000",
        "111817.364000",
        "111818.374000",
        "111819.362000",
        "111820.345000",
        "111821.339000",
        "111822.362000",
        "111823.332000",
        "111824.381000",
        "111825.359000",
        "111826.369000",
        "111827.350000",
        "111828.350000",
        "111829.362000",
        "111830.369000",
        "111831.357000",
        "111832.342000",
        "111833.352000",
        "111834.378000",
        "111835.363000",
        "111836.361000",
        "111837.355000",
        "111838.371000",
        "111839.371000",
        "111840.396000",
        "111841.372000",
        "111842.383000",
        "111843.343000",
        "111844.370000",
        "111845.331000",
        "111846.409000",
        "111847.360000",
        "111848.355000",
        "111849.361000",
        "111850.377000",
        "111851.340000",
        "111852.350000",
        "111853.351000",
        "111854.366000",
        "111855.361000",
        "111856.424000",
        "111857.337000",
        "111858.364000",
        "111859.356000",
        "111900.368000",
        "111901.351000",
        "111902.386000",
        "111903.346000",
        "111904.370000",
        "111905.350000",
        "111906.347000",
        "111907.395000",
        "111908.349000",
        "111909.366000",
        "111910.368000",
        "111911.352000",
        "111912.362000",
        "111913.333000",
        "111914.333000",
        "111915.348000",
        "111916.329000",
        "111917.352000",
        "111918.350000",
        "111919.343000",
        "111920.351000",
        "111921.359000",
        "111922.347000",
        "111923.349000",
        "111924.353000",
        "111925.361000",
        "111926.344000",
        "111927.333000",
        "111928.334000",
        "111929.341000",
        "111930.342000",
        "111931.380000",
        "111932.333000",
        "111933.339000",
        "111934.351000",
        "111935.354000",
        "111936.344000",
        "111937.363000",
        "111938.367000",
        "111939.379000",
        "111940.367000",
        "111941.358000",
        "111942.369000",
        "111943.361000",
        "111944.349000",
        "111945.349000",
        "111946.351000",
        "111947.418000",
        "111948.350000",
        "111949.359000",
        "111950.358000",
        "111951.357000",
        "111952.353000",
        "111953.371000",
        "111954.363000",
        "111955.367000",
        "111956.353000",
        "111957.339000",
        "111958.337000",
        "111959.389000",
        "112000.356000",
        "112001.366000",
        "112002.365000",
        "112003.360000",
        "112004.353000",
        "112005.379000",
        "112006.355000",
        "112007.381000",
        "112008.354000",
        "112009.353000",
        "112010.358000",
        "112011.362000",
        "112012.382000",
        "112013.371000",
        "112014.335000",
        "112015.371000",
        "112016.386000",
        "112017.364000",
        "112018.358000",
        "112019.355000",
        "112020.360000",
        "112021.368000",
        "112022.382000",
        "112023.357000",
        "112024.347000",
        "112025.383000",
        "112026.351000",
        "112027.440000",
        "112028.354000",
        "112029.344000",
        "112030.316000",
        "112031.369000",
        "112032.369000",
        "112033.368000",
        "112034.395000",
        "112035.353000",
        "112036.364000",
        "112037.379000",
        "112038.369000",
        "112039.352000",
        "112040.370000",
        "112041.379000",
        "112042.364000",
        "112043.370000",
        "112044.355000",
        "112045.377000",
        "112046.361000",
        "112047.369000",
        "112048.370000",
        "112049.337000",
        "112050.371000",
        "112051.355000",
        "112052.354000",
        "112053.357000",
        "112054.351000",
        "112055.371000",
        "112056.362000",
        "112057.351000",
        "112058.362000",
        "112059.338000",
        "112100.368000",
        "112101.345000",
        "112102.346000",
        "112103.346000",
        "112104.342000",
        "112105.368000",
        "112106.349000",
        "112107.373000",
        "112108.379000",
        "112109.360000",
        "112110.349000",
        "112111.348000",
        "112112.365000",
        "112113.353000",
        "112114.367000",
        "112115.368000",
        "112116.361000",
        "112117.353000",
        "112118.429000",
        "112119.390000",
        "112120.363000",
        "112121.346000",
        "112122.375000",
        "112123.370000",
        "112124.362000",
        "112125.354000",
        "112126.388000",
        "112127.336000",
        "112128.369000",
        "112129.339000",
        "112130.357000",
        "112131.368000",
        "112132.428000",
        "112133.362000",
        "112134.342000",
        "112135.358000",
        "112136.395000",
        "112137.358000",
        "112138.318000",
        "112139.338000",
        "112140.320000",
        "112141.339000",
        "112142.379000",
        "112143.362000",
        "112144.345000",
        "112145.384000",
        "112146.368000",
        "112147.355000",
        "112148.352000",
        "112149.341000",
        "112150.343000",
        "112151.351000",
        "112152.317000",
        "112153.366000",
        "112154.358000",
        "112155.367000",
        "112156.370000",
        "112157.363000",
        "112158.408000",
        "112159.362000",
        "112200.354000",
        "112201.371000",
        "112202.365000",
        "112203.401000",
        "112204.363000",
        "112205.368000",
        "112206.375000",
        "112207.365000",
        "112208.391000",
        "112209.342000",
        "112210.360000",
        "112211.374000",
        "112212.375000",
        "112213.349000",
        "112214.342000",
        "112215.358000",
        "112216.368000",
        "112217.379000",
        "112218.365000",
        "112219.342000",
        "112220.372000",
        "112221.341000",
        "112222.357000",
        "112223.344000",
        "112224.335000",
        "112225.357000",
        "112226.350000",
        "112227.377000",
        "112228.359000",
        "112229.374000",
        "112230.374000",
        "112231.353000",
        "112232.350000",
        "112233.366000",
        "112234.359000",
        "112235.356000",
        "112236.352000",
        "112237.366000",
        "112238.364000",
        "112239.343000",
        "112240.367000",
        "112241.346000",
        "112242.350000",
        "112243.399000"
      ],
      "InstanceCreationTime": [
        "111756.531000",
        "111757.362000",
        "111758.347000",
        "111759.363000",
        "111800.350000",
        "111801.342000",
        "111802.358000",
        "111803.361000",
        "111804.357000",
        "111805.338000",
        "111806.351000",
        "111807.373000",
        "111808.360000",
        "111809.345000",
        "111810.343000",
        "111811.373000",
        "111812.367000",
        "111813.369000",
        "111814.362000",
        "111815.359000",
        "111816.364000",
        "111817.364000",
        "111818.374000",
        "111819.362000",
        "111820.345000",
        "111821.339000",
        "111822.362000",
        "111823.332000",
        "111824.381000",
        "111825.359000",
        "111826.369000",
        "111827.350000",
        "111828.350000",
        "111829.362000",
        "111830.369000",
        "111831.357000",
        "111832.342000",
        "111833.352000",
        "111834.378000",
        "111835.363000",
        "111836.361000",
        "111837.355000",
        "111838.371000",
        "111839.371000",
        "111840.396000",
        "111841.372000",
        "111842.383000",
        "111843.343000",
        "111844.370000",
        "111845.331000",
        "111846.409000",
        "111847.360000",
        "111848.355000",
        "111849.361000",
        "111850.377000",
        "111851.340000",
        "111852.350000",
        "111853.351000",
        "111854.366000",
        "111855.361000",
        "111856.424000",
        "111857.337000",
        "111858.364000",
        "111859.356000",
        "111900.368000",
        "111901.351000",
        "111902.386000",
        "111903.346000",
        "111904.370000",
        "111905.350000",
        "111906.347000",
        "111907.395000",
        "111908.349000",
        "111909.366000",
        "111910.368000",
        "111911.352000",
        "111912.362000",
        "111913.333000",
        "111914.333000",
        "111915.348000",
        "111916.329000",
        "111917.352000",
        "111918.350000",
        "111919.343000",
        "111920.351000",
        "111921.359000",
        "111922.347000",
        "111923.349000",
        "111924.353000",
        "111925.361000",
        "111926.344000",
        "111927.333000",
        "111928.334000",
        "111929.341000",
        "111930.342000",
        "111931.380000",
        "111932.333000",
        "111933.339000",
        "111934.351000",
        "111935.354000",
        "111936.344000",
        "111937.363000",
        "111938.367000",
        "111939.379000",
        "111940.367000",
        "111941.358000",
        "111942.369000",
        "111943.361000",
        "111944.349000",
        "111945.349000",
        "111946.351000",
        "111947.418000",
        "111948.350000",
        "111949.359000",
        "111950.358000",
        "111951.357000",
        "111952.353000",
        "111953.371000",
        "111954.363000",
        "111955.367000",
        "111956.353000",
        "111957.339000",
        "111958.337000",
        "111959.389000",
        "112000.356000",
        "112001.366000",
        "112002.365000",
        "112003.360000",
        "112004.353000",
        "112005.379000",
        "112006.355000",
        "112007.381000",
        "112008.354000",
        "112009.353000",
        "112010.358000",
        "112011.362000",
        "112012.382000",
        "112013.371000",
        "112014.335000",
        "112015.371000",
        "112016.386000",
        "112017.364000",
        "112018.358000",
        "112019.355000",
        "112020.360000",
        "112021.368000",
        "112022.382000",
        "112023.357000",
        "112024.347000",
        "112025.383000",
        "112026.351000",
        "112027.440000",
        "112028.354000",
        "112029.344000",
        "112030.316000",
        "112031.369000",
        "112032.369000",
        "112033.368000",
        "112034.395000",
        "112035.353000",
        "112036.364000",
        "112037.379000",
        "112038.369000",
        "112039.352000",
        "112040.370000",
        "112041.379000",
        "112042.364000",
        "112043.370000",
        "112044.355000",
        "112045.377000",
        "112046.361000",
        "112047.369000",
        "112048.370000",
        "112049.337000",
        "112050.371000",
        "112051.355000",
        "112052.354000",
        "112053.357000",
        "112054.351000",
        "112055.371000",
        "112056.362000",
        "112057.351000",
        "112058.362000",
        "112059.338000",
        "112100.368000",
        "112101.345000",
        "112102.346000",
        "112103.346000",
        "112104.342000",
        "112105.368000",
        "112106.349000",
        "112107.373000",
        "112108.379000",
        "112109.360000",
        "112110.349000",
        "112111.348000",
        "112112.365000",
        "112113.353000",
        "112114.367000",
        "112115.368000",
        "112116.361000",
        "112117.353000",
        "112118.429000",
        "112119.390000",
        "112120.363000",
        "112121.346000",
        "112122.375000",
        "112123.370000",
        "112124.362000",
        "112125.354000",
        "112126.388000",
        "112127.336000",
        "112128.369000",
        "112129.339000",
        "112130.357000",
        "112131.368000",
        "112132.428000",
        "112133.362000",
        "112134.342000",
        "112135.358000",
        "112136.395000",
        "112137.358000",
        "112138.318000",
        "112139.338000",
        "112140.320000",
        "112141.339000",
        "112142.379000",
        "112143.362000",
        "112144.345000",
        "112145.384000",
        "112146.368000",
        "112147.355000",
        "112148.352000",
        "112149.341000",
        "112150.343000",
