{
  "AcquisitionMatrixPE": 96,
  "AcquisitionNumber": 1,
  "AcquisitionTime": "11:07:50.695000",
  "BandwidthPerPixelPhaseEncode": 18.939,
  "BaseResolution": 96,
  "BodyPartExamined": "BRAIN",
  "ConsistencyInfo": "N4_VE11C_LATEST_20160120",
  "ConversionSoftware": "dcm2niix",
  "ConversionSoftwareVersion": "v1.0.20171215 (OpenJPEG build) GCC6.3.0",
  "DerivedVendorReportedEchoSpacing": 0.000550011,
  "DeviceSerialNumber": "66112",
  "DwellTime": 2.2e-06,
  "EchoTime": 0.033,
  "EchoTrainLength": 96,
  "EffectiveEchoSpacing": 0.000550011,
  "FlipAngle": 59,
  "ImageOrientationPatientDICOM": [0.997804, 0.0376825, 0.0544664, -0.0290912, 0.98815, -0.150709],
  "ImageType": [
    "ORIGINAL",
    "PRIMARY",
    "FMRI",
    "NONE",
    "ND",
    "NORM",
    "MOSAIC"
],
  "InPlanePhaseEncodingDirectionDICOM": "COL",
  "InstitutionAddress": "Maynard_3_Hanover_NH_US_03755",
  "InstitutionName": "Dartmouth_College_-_PBS",
  "InstitutionalDepartmentName": "Department",
  "MRAcquisitionType": "2D",
  "MagneticFieldStrength": 3,
  "Manufacturer": "Siemens",
  "ManufacturersModelName": "Prisma",
  "Modality": "MR",
  "MultibandAccelerationFactor": 4,
  "PartialFourier": 1,
  "PatientPosition": "HFS",
  "PercentPhaseFOV": 100,
  "PhaseEncodingDirection": "j-",
  "PhaseEncodingSteps": 96,
  "PhaseResolution": 1,
  "PixelBandwidth": 2365,
  "ProcedureStepDescription": "Gobbini_Matteo_1038_hyperface",
  "ProtocolName": "func_run-01_task-localizer",
  "PulseSequenceDetails": "%SiemensSeq%_ep2d_bold",
  "ReceiveCoilActiveElements": "HEA;HEP",
  "ReceiveCoilName": "Head_32",
  "ReconMatrixPE": 96,
  "RepetitionTime": 1,
  "SAR": 0.0504885,
  "ScanOptions": "FS",
  "ScanningSequence": "EP",
  "SequenceName": "_epfid2d1_96",
  "SequenceVariant": "SK",
  "SeriesDescription": "func_run-01_task-localizer",
  "SeriesNumber": 7,
  "ShimSetting": [4146, -7686, -7320, 721, -33, -135, -83, 61],
  "SliceThickness": 2.5,
  "SliceTiming": [0.735, 0, 0.49, 0.08, 0.57, 0.1625, 0.6525, 0.325, 0.815, 0.4075, 0.8975, 0.245, 0.735, 0, 0.49, 0.08, 0.57, 0.1625, 0.6525, 0.325, 0.815, 0.4075, 0.8975, 0.245, 0.735, 0, 0.49, 0.08, 0.57, 0.1625, 0.6525, 0.325, 0.815, 0.4075, 0.8975, 0.245, 0.735, 0, 0.49, 0.08, 0.57, 0.1625, 0.6525, 0.325, 0.815, 0.4075, 0.8975, 0.245],
  "SoftwareVersions": "syngo_MR_E11",
  "SpacingBetweenSlices": 2.5,
  "StationName": "AWP66112",
  "TotalReadoutTime": 0.0522511,
  "TxRefAmp": 234.056,
  "dcmmeta_affine": [
    [-2.4945108890533447, -0.07272811979055405, 0.1487501561641693, 123.3690414428711],
    [-0.09420626610517502, 2.4703750610351562, -0.37198492884635925, -100.51276397705078],
    [0.13616596162319183, 0.3767734467983246, 2.467691421508789, -94.41930389404297],
    [0.0, 0.0, 0.0, 1.0]
],
  "dcmmeta_reorient_transform": [
    [0.0, -1.0, 0.0, 95.0],
    [1.0, 0.0, 0.0, 0.0],
    [0.0, 0.0, 1.0, 0.0],
    [0.0, 0.0, 0.0, 1.0]
],
  "dcmmeta_shape": [96, 96, 48, 236],
  "dcmmeta_slice_dim": 2,
  "dcmmeta_version": 0.6,
  "global": {
    "const": {
      "AccessionNumber": "A001340",
      "AcquisitionMatrix": [96, 0, 0, 96],
      "AngioFlag": "N",
      "BitsAllocated": 16,
      "BitsStored": 12,
      "BodyPartExamined": "BRAIN",
      "Columns": 672,
      "EchoNumbers": 1,
      "EchoTime": 33.0,
      "EchoTrainLength": 96,
      "FlipAngle": 59.0,
      "HighBit": 11,
      "ImageOrientationPatient": [0.99780431020281, 0.03768250512379, 0.05446638732555, -0.0290912465089, 0.98814997946375, -0.1507093808041],
      "ImagePositionPatient": [-813.93327365853, -872.77224409241, 10.669126728986],
      "ImageType": [
        "ORIGINAL",
        "PRIMARY",
        "FMRI",
        "NONE",
        "ND",
        "NORM",
        "MOSAIC"
],
      "ImagedNucleus": "1H",
      "ImagingFrequency": 123.252291,
      "InPlanePhaseEncodingDirection": "COL",
      "MRAcquisitionType": "2D",
      "MagneticFieldStrength": 3.0,
      "Manufacturer": "SIEMENS",
      "ManufacturerModelName": "Prisma",
      "Modality": "MR",
      "NumberOfAverages": 1.0,
      "NumberOfPhaseEncodingSteps": 96,
      "PercentPhaseFieldOfView": 100.0,
      "PercentSampling": 100.0,
      "PerformedProcedureStepStartTime": "105554.137000",
      "PhotometricInterpretation": "MONOCHROME2",
      "PixelBandwidth": 2365.0,
      "PixelRepresentation": 0,
      "PixelSpacing": [2.5, 2.5],
      "PositionReferenceIndicator": "",
      "ProtocolName": "func_run-01_task-localizer",
      "RepetitionTime": 1000.0,
      "Rows": 672,
      "SAR": 0.05048847460173,
      "SamplesPerPixel": 1,
      "ScanOptions": "FS",
      "ScanningSequence": "EP",
      "SequenceName": "*epfid2d1_96",
      "SequenceVariant": "SK",
      "SeriesDescription": "func_run-01_task-localizer",
      "SeriesNumber": 7,
      "SeriesTime": "110751.573000",
      "SliceLocation": -70.902922538338,
      "SliceThickness": 2.5,
      "SmallestImagePixelValue": 0,
      "SoftwareVersions": "syngo MR E11",
      "SpacingBetweenSlices": 2.4999999527747,
      "SpecificCharacterSet": "ISO_IR 100",
      "StudyID": "3",
      "StudyTime": "105554.052000",
      "TransmitCoilName": "Body",
      "VariableFlipAngleFlag": "N",
      "WindowCenterWidthExplanation": "Algo1",
      "dBdt": 0.0},
    "slices": {}
  },
  "time": {
    "samples": {
      "AcquisitionNumber": [1, 2, 3, 4, 5, 6, 7, 8, 9, 10, 11, 12, 13, 14, 15, 16, 17, 18, 19, 20, 21, 22, 23, 24, 25, 26, 27, 28, 29, 30, 31, 32, 33, 34, 35, 36, 37, 38, 39, 40, 41, 42, 43, 44, 45, 46, 47, 48, 49, 50, 51, 52, 53, 54, 55, 56, 57, 58, 59, 60, 61, 62, 63, 64, 65, 66, 67, 68, 69, 70, 71, 72, 73, 74, 75, 76, 77, 78, 79, 80, 81, 82, 83, 84, 85, 86, 87, 88, 89, 90, 91, 92, 93, 94, 95, 96, 97, 98, 99, 100, 101, 102, 103, 104, 105, 106, 107, 108, 109, 110, 111, 112, 113, 114, 115, 116, 117, 118, 119, 120, 121, 122, 123, 124, 125, 126, 127, 128, 129, 130, 131, 132, 133, 134, 135, 136, 137, 138, 139, 140, 141, 142, 143, 144, 145, 146, 147, 148, 149, 150, 151, 152, 153, 154, 155, 156, 157, 158, 159, 160, 161, 162, 163, 164, 165, 166, 167, 168, 169, 170, 171, 172, 173, 174, 175, 176, 177, 178, 179, 180, 181, 182, 183, 184, 185, 186, 187, 188, 189, 190, 191, 192, 193, 194, 195, 196, 197, 198, 199, 200, 201, 202, 203, 204, 205, 206, 207, 208, 209, 210, 211, 212, 213, 214, 215, 216, 217, 218, 219, 220, 221, 222, 223, 224, 225, 226, 227, 228, 229, 230, 231, 232, 233, 234, 235, 236],
      "AcquisitionTime": ["110750.695000", "110751.695000", "110752.695000", "110753.695000", "110754.695000", "110755.695000", "110756.695000", "110757.695000", "110758.695000", "110759.695000", "110800.695000", "110801.695000", "110802.695000", "110803.695000", "110804.695000", "110805.695000", "110806.695000", "110807.695000", "110808.695000", "110809.695000", "110810.695000", "110811.695000", "110812.695000", "110813.695000", "110814.695000", "110815.695000", "110816.695000", "110817.695000", "110818.695000", "110819.695000", "110820.695000", "110821.695000", "110822.695000", "110823.695000", "110824.695000", "110825.695000", "110826.695000", "110827.695000", "110828.695000", "110829.695000", "110830.695000", "110831.695000", "110832.695000", "110833.695000", "110834.695000", "110835.695000", "110836.695000", "110837.695000", "110838.695000", "110839.695000", "110840.695000", "110841.695000", "110842.695000", "110843.695000", "110844.695000", "110845.695000", "110846.695000", "110847.695000", "110848.695000", "110849.695000", "110850.695000", "110851.695000", "110852.695000", "110853.695000", "110854.695000", "110855.695000", "110856.695000", "110857.695000", "110858.695000", "110859.695000", "110900.695000", "110901.695000", "110902.695000", "110903.695000", "110904.695000", "110905.695000", "110906.695000", "110907.695000", "110908.695000", "110909.695000", "110910.695000", "110911.695000", "110912.695000", "110913.695000", "110914.695000", "110915.695000", "110916.695000", "110917.695000", "110918.695000", "110919.695000", "110920.695000", "110921.695000", "110922.695000", "110923.695000", "110924.695000", "110925.695000", "110926.695000", "110927.695000", "110928.695000", "110929.695000", "110930.695000", "110931.695000", "110932.695000", "110933.695000", "110934.695000", "110935.695000", "110936.695000", "110937.695000", "110938.695000", "110939.695000", "110940.695000", "110941.695000", "110942.695000", "110943.695000", "110944.695000", "110945.695000", "110946.695000", "110947.695000", "110948.695000", "110949.695000", "110950.695000", "110951.695000", "110952.695000", "110953.695000", "110954.695000", "110955.695000", "110956.695000", "110957.695000", "110958.695000", "110959.695000", "111000.695000", "111001.695000", "111002.695000", "111003.695000", "111004.695000", "111005.695000", "111006.695000", "111007.695000", "111008.695000", "111009.695000", "111010.695000", "111011.695000", "111012.695000", "111013.695000", "111014.695000", "111015.695000", "111016.695000", "111017.695000", "111018.695000", "111019.695000", "111020.695000", "111021.695000", "111022.695000", "111023.695000", "111024.695000", "111025.695000", "111026.695000", "111027.695000", "111028.695000", "111029.695000", "111030.695000", "111031.695000", "111032.695000", "111033.695000", "111034.695000", "111035.695000", "111036.695000", "111037.695000", "111038.695000", "111039.695000", "111040.695000", "111041.695000", "111042.695000", "111043.695000", "111044.695000", "111045.695000", "111046.695000", "111047.695000", "111048.695000", "111049.695000", "111050.695000", "111051.695000", "111052.695000", "111053.695000", "111054.695000", "111055.695000", "111056.695000", "111057.695000", "111058.695000", "111059.695000", "111100.695000", "111101.695000", "111102.695000", "111103.695000", "111104.695000", "111105.695000", "111106.695000", "111107.695000", "111108.695000", "111109.695000", "111110.695000", "111111.695000", "111112.695000", "111113.695000", "111114.695000", "111115.695000", "111116.695000", "111117.695000", "111118.695000", "111119.695000", "111120.695000", "111121.695000", "111122.695000", "111123.695000", "111124.695000", "111125.695000", "111126.695000", "111127.695000", "111128.695000", "111129.695000", "111130.695000", "111131.695000", "111132.695000", "111133.695000", "111134.695000", "111135.695000", "111136.695000", "111137.695000", "111138.695000", "111139.695000", "111140.695000", "111141.695000", "111142.695000", "111143.695000", "111144.695000", "111145.695000"],
      "ContentTime": ["110751.577000", "110752.391000", "110753.407000", "110754.385000", "110755.393000", "110756.388000", "110757.397000", "110758.367000", "110759.397000", "110800.408000", "110801.384000", "110802.392000", "110803.375000", "110804.375000", "110805.385000", "110806.378000", "110807.381000", "110808.405000", "110809.370000", "110810.404000", "110811.405000", "110812.396000", "110813.407000", "110814.365000", "110815.386000", "110816.375000", "110817.376000", "110818.373000", "110819.374000", "110820.403000", "110821.370000", "110822.390000", "110823.366000", "110824.381000", "110825.424000", "110826.339000", "110827.401000", "110828.351000", "110829.366000", "110830.393000", "110831.359000", "110832.362000", "110833.353000", "110834.383000", "110835.372000", "110836.359000", "110837.372000", "110838.361000", "110839.349000", "110840.357000", "110841.374000", "110842.357000", "110843.375000", "110844.378000", "110845.379000", "110846.373000", "110847.385000", "110848.363000", "110849.355000", "110850.372000", "110851.357000", "110852.357000", "110853.368000", "110854.377000", "110855.388000", "110856.381000", "110857.366000", "110858.367000", "110859.381000", "110900.347000", "110901.411000", "110902.362000", "110903.375000", "110904.382000", "110905.397000", "110906.376000", "110907.405000", "110908.370000", "110909.373000", "110910.368000", "110911.365000", "110912.397000", "110913.378000", "110914.353000", "110915.381000", "110916.381000", "110917.446000", "110918.402000", "110919.363000", "110920.369000", "110921.380000", "110922.389000", "110923.365000", "110924.373000", "110925.390000", "110926.361000", "110927.376000", "110928.373000", "110929.385000", "110930.369000", "110931.373000", "110932.378000", "110933.359000", "110934.375000", "110935.365000", "110936.356000", "110937.366000", "110938.374000", "110939.375000", "110940.404000", "110941.375000", "110942.364000", "110943.368000", "110944.377000", "110945.365000", "110946.369000", "110947.418000", "110948.360000", "110949.384000", "110950.389000", "110951.385000", "110952.398000", "110953.384000", "110954.357000", "110955.357000", "110956.374000", "110957.368000", "110958.387000", "110959.389000", "111000.358000", "111001.373000", "111002.357000", "111003.367000", "111004.368000", "111005.367000", "111006.369000", "111007.366000", "111008.383000", "111009.369000", "111010.351000", "111011.385000", "111012.360000", "111013.376000", "111014.390000", "111015.382000", "111016.392000", "111017.384000", "111018.357000", "111019.382000", "111020.357000", "111021.381000", "111022.357000", "111023.375000", "111024.390000", "111025.373000", "111026.366000", "111027.345000", "111028.409000", "111029.373000", "111030.387000", "111031.384000", "111032.372000", "111033.386000", "111034.352000", "111035.371000", "111036.391000", "111037.409000", "111038.381000", "111039.391000", "111040.372000", "111041.355000", "111042.387000", "111043.407000", "111044.405000", "111045.374000", "111046.375000", "111047.360000", "111048.395000", "111049.360000", "111050.397000", "111051.400000", "111052.366000", "111053.408000", "111054.389000", "111055.352000", "111056.380000", "111057.388000", "111058.390000", "111059.377000", "111100.419000", "111101.400000", "111102.423000", "111103.375000", "111104.375000", "111105.350000", "111106.389000", "111107.375000", "111108.368000", "111109.369000", "111110.380000", "111111.386000", "111112.373000", "111113.411000", "111114.386000", "111115.373000", "111116.363000", "111117.382000", "111118.339000", "111119.338000", "111120.410000", "111121.379000", "111122.367000", "111123.383000", "111124.409000", "111125.378000", "111126.380000", "111127.375000", "111128.366000", "111129.379000", "111130.366000", "111131.386000", "111132.399000", "111133.379000", "111134.360000", "111135.355000", "111136.370000", "111137.376000", "111138.413000", "111139.381000", "111140.358000", "111141.368000", "111142.443000", "111143.377000", "111144.392000", "111145.374000", "111146.414000"],
      "InstanceCreationTime": ["110751.577000", "110752.391000", "110753.407000", "110754.385000", "110755.393000", "110756.388000", "110757.397000", "110758.367000", "110759.397000", "110800.408000", "110801.384000", "110802.392000", "110803.375000", "110804.375000", "110805.385000", "110806.378000", "110807.381000", "110808.405000", "110809.370000", "110810.404000", "110811.405000", "110812.396000", "110813.407000", "110814.365000", "110815.386000", "110816.375000", "110817.376000", "110818.373000", "110819.374000", "110820.403000", "110821.370000", "110822.390000", "110823.366000", "110824.381000", "110825.424000", "110826.339000", "110827.401000", "110828.351000", "110829.366000", "110830.393000", "110831.359000", "110832.362000", "110833.353000", "110834.383000", "110835.372000", "110836.359000", "110837.372000", "110838.361000", "110839.349000", "110840.357000", "110841.374000", "110842.357000", "110843.375000", "110844.378000", "110845.379000", "110846.373000", "110847.385000", "110848.363000", "110849.355000", "110850.372000", "110851.357000", "110852.357000", "110853.368000", "110854.377000", "110855.388000", "110856.381000", "110857.366000", "110858.367000", "110859.381000", "110900.347000", "110901.411000", "110902.362000", "110903.375000", "110904.382000", "110905.397000", "110906.376000", "110907.405000", "110908.370000", "110909.373000", "110910.368000", "110911.365000", "110912.397000", "110913.378000", "110914.353000", "110915.381000", "110916.381000", "110917.446000", "110918.402000", "110919.363000", "110920.369000", "110921.380000", "110922.389000", "110923.365000", "110924.373000", "110925.390000", "110926.361000", "110927.376000", "110928.373000", "110929.385000", "110930.369000", "110931.373000", "110932.378000", "110933.359000", "110934.375000", "110935.365000", "110936.356000", "110937.366000", "110938.374000", "110939.375000", "110940.404000", "110941.375000", "110942.364000", "110943.368000", "110944.377000", "110945.365000", "110946.369000", "110947.418000", "110948.360000", "110949.384000", "110950.389000", "110951.385000", "110952.398000", "110953.384000", "110954.357000", "110955.357000", "110956.374000", "110957.368000", "110958.387000", "110959.389000", "111000.358000", "111001.373000", "111002.357000", "111003.367000", "111004.368000", "111005.367000", "111006.369000", "111007.366000", "111008.383000", "111009.369000", "111010.351000", "111011.385000", "111012.360000", "111013.376000", "111014.390000", "111015.382000", "111016.392000", "111017.384000", "111018.357000", "111019.382000", "111020.357000", "111021.381000", "111022.357000", "111023.375000", "111024.390000", "111025.373000", "111026.366000", "111027.345000", "111028.409000", "111029.373000", "111030.387000", "111031.384000", "111032.372000", "111033.386000", "111034.352000", "111035.371000", "111036.391000", "111037.409000", "111038.381000", "111039.391000", "111040.372000", "111041.355000", "111042.387000", "111043.407000", "111044.405000", "111045.374000", "111046.375000", "111047.360000", "111048.395000", "111049.360000", "111050.397000", "111051.400000", "111052.366000", "111053.408000", "111054.389000", "111055.352000", "111056.380000", "111057.388000", "111058.390000", "111059.377000", "111100.419000", "111101.400000", "111102.423000", "111103.375000", "111104.375000", "111105.350000", "111106.389000", "111107.375000", "111108.368000", "111109.369000", "111110.380000", "111111.386000", "111112.373000", "111113.411000", "111114.386000", "111115.373000", "111116.363000", "111117.382000", "111118.339000", "111119.338000", "111120.410000", "111121.379000", "111122.367000", "111123.383000", "111124.409000", "111125.378000", "111126.380000", "111127.375000", "111128.366000", "111129.379000", "111130.366000", "111131.386000", "111132.399000", "111133.379000", "111134.360000", "111135.355000", "111136.370000", "111137.376000", "111138.413000", "111139.381000", "111140.358000", "111141.368000", "111142.443000", "111143.377000", "111144.392000", "111145.374000", "111146.414000"],
      "InstanceNumber": [1, 2, 3, 4, 5, 6, 7, 8, 9, 10, 11, 12, 13, 14, 15, 16, 17, 18, 19, 20, 21, 22, 23, 24, 25, 26, 27, 28, 29, 30, 31, 32, 33, 34, 35, 36, 37, 38, 39, 40, 41, 42, 43, 44, 45, 46, 47, 48, 49, 50, 51, 52, 53, 54, 55, 56, 57, 58, 59, 60, 61, 62, 63, 64, 65, 66, 67, 68, 69, 70, 71, 72, 73, 74, 75, 76, 77, 78, 79, 80, 81, 82, 83, 84, 85, 86, 87, 88, 89, 90, 91, 92, 93, 94, 95, 96, 97, 98, 99, 100, 101, 102, 103, 104, 105, 106, 107, 108, 109, 110, 111, 112, 113, 114, 115, 116, 117, 118, 119, 120, 121, 122, 123, 124, 125, 126, 127, 128, 129, 130, 131, 132, 133, 134, 135, 136, 137, 138, 139, 140, 141, 142, 143, 144, 145, 146, 147, 148, 149, 150, 151, 152, 153, 154, 155, 156, 157, 158, 159, 160, 161, 162, 163, 164, 165, 166, 167, 168, 169, 170, 171, 172, 173, 174, 175, 176, 177, 178, 179, 180, 181, 182, 183, 184, 185, 186, 187, 188, 189, 190, 191, 192, 193, 194, 195, 196, 197, 198, 199, 200, 201, 202, 203, 204, 205, 206, 207, 208, 209, 210, 211, 212, 213, 214, 215, 216, 217, 218, 219, 220, 221, 222, 223, 224, 225, 226, 227, 228, 229, 230, 231, 232, 233, 234, 235, 236],
      "LargestImagePixelValue": [787, 676, 981, 787, 935, 1375, 795, 923, 692, 725, 715, 799, 1212, 660, 1048, 766, 731, 1069, 699, 927, 656, 718, 1048, 691, 738, 965, 694, 718, 703, 692, 824, 678, 706, 789, 714, 1042, 682, 731, 1124, 675, 724, 700, 713, 697, 689, 654, 704, 1161, 674, 795, 661, 704, 1066, 684, 791, 682, 796, 753, 797, 1094, 669, 877, 658, 754, 758, 680, 1104, 671, 827, 651, 669, 1143, 687, 866, 652, 647, 679, 682, 1004, 661, 649, 648, 758, 660, 1047, 675, 815, 672, 675, 1065, 650, 714, 1262, 716, 843, 656, 647, 923, 666, 839, 674, 650, 878, 656, 919, 663, 650, 662, 704, 984, 884, 762, 964, 653, 886, 753, 673, 1032, 683, 807, 665, 719, 1303, 720, 641, 926, 638, 785, 704, 810, 653, 821, 654, 713, 681, 649, 887, 643, 652, 676, 662, 649, 937, 662, 912, 653, 755, 923, 685, 650, 678, 837, 658, 979, 858, 667, 1188, 658, 650, 704, 653, 1104, 652, 754, 804, 650, 824, 679, 904, 658, 854, 657, 657, 717, 648, 1075, 653, 936, 700, 694, 657, 768, 662, 662, 1254, 688, 825, 713, 690, 924, 666, 985, 685, 761, 656, 744, 657, 971, 650, 809, 648, 804, 929, 652, 1103, 696, 788, 672, 686, 1006, 658, 856, 653, 650, 1195, 657, 840, 1050, 671, 966, 653, 651, 1194, 690, 692, 722, 668, 715, 755, 655, 940, 686, 847, 1137, 668, 758],
      "WindowCenter": [336.0, 334.0, 336.0, 334.0, 335.0, 337.0, 333.0, 334.0, 332.0, 332.0, 332.0, 333.0, 335.0, 331.0, 334.0, 332.0, 332.0, 334.0, 331.0, 333.0, 331.0, 332.0, 334.0, 331.0, 332.0, 333.0, 331.0, 332.0, 331.0, 331.0, 333.0, 332.0, 332.0, 332.0, 331.0, 334.0, 331.0, 332.0, 335.0, 331.0, 331.0, 331.0, 332.0, 332.0, 332.0, 332.0, 332.0, 335.0, 332.0, 333.0, 331.0, 332.0, 335.0, 332.0, 333.0, 332.0, 333.0, 333.0, 333.0, 335.0, 331.0, 333.0, 331.0, 332.0, 332.0, 332.0, 335.0, 332.0, 333.0, 331.0, 331.0, 335.0, 331.0, 333.0, 331.0, 331.0, 332.0, 332.0, 335.0, 332.0, 331.0, 332.0, 333.0, 332.0, 335.0, 332.0, 333.0, 332.0, 332.0, 335.0, 332.0, 332.0, 335.0, 332.0, 333.0, 331.0, 331.0, 333.0, 332.0, 333.0, 332.0, 332.0, 333.0, 331.0, 334.0, 331.0, 332.0, 332.0, 332.0, 335.0, 334.0, 332.0, 334.0, 332.0, 333.0, 332.0, 332.0, 335.0, 332.0, 333.0, 332.0, 332.0, 336.0, 331.0, 330.0, 333.0, 331.0, 332.0, 332.0, 333.0, 332.0, 333.0, 331.0, 332.0, 332.0, 331.0, 333.0, 331.0, 332.0, 332.0, 332.0, 332.0, 335.0, 332.0, 335.0, 332.0, 333.0, 334.0, 332.0, 332.0, 332.0, 334.0, 333.0, 335.0, 334.0, 332.0, 335.0, 331.0, 332.0, 332.0, 332.0, 335.0, 331.0, 332.0, 333.0, 331.0, 333.0, 332.0, 334.0, 332.0, 334.0, 332.0, 332.0, 332.0, 332.0, 335.0, 332.0, 334.0, 332.0, 332.0, 332.0, 334.0, 333.0, 333.0, 337.0, 333.0, 334.0, 332.0, 332.0, 334.0, 332.0, 335.0, 332.0, 333.0, 332.0, 333.0, 332.0, 335.0, 332.0, 334.0, 332.0, 334.0, 334.0, 332.0, 335.0, 332.0, 333.0, 332.0, 332.0, 335.0, 332.0, 333.0, 332.0, 332.0, 336.0, 332.0, 334.0, 335.0, 332.0, 334.0, 331.0, 332.0, 336.0, 332.0, 332.0, 332.0, 332.0, 332.0, 333.0, 332.0, 335.0, 332.0, 334.0, 335.0, 331.0, 332.0],
      "WindowWidth": [724.0, 721.0, 724.0, 721.0, 722.0, 725.0, 719.0, 720.0, 717.0, 717.0, 718.0, 718.0, 722.0, 716.0, 719.0, 716.0, 716.0, 719.0, 715.0, 717.0, 715.0, 716.0, 719.0, 715.0, 716.0, 718.0, 715.0, 716.0, 715.0, 716.0, 718.0, 716.0, 717.0, 717.0, 716.0, 720.0, 715.0, 716.0, 720.0, 715.0, 716.0, 715.0, 716.0, 716.0, 716.0, 717.0, 718.0, 722.0, 717.0, 718.0, 715.0, 716.0, 720.0, 716.0, 719.0, 717.0, 718.0, 718.0, 718.0, 721.0, 715.0, 719.0, 715.0, 717.0, 717.0, 716.0, 720.0, 716.0, 718.0, 716.0, 716.0, 720.0, 715.0, 718.0, 715.0, 716.0, 717.0, 717.0, 721.0, 717.0, 716.0, 717.0, 719.0, 717.0, 722.0, 717.0, 718.0, 717.0, 717.0, 721.0, 716.0, 718.0, 722.0, 717.0, 718.0, 716.0, 716.0, 719.0, 717.0, 719.0, 717.0, 717.0, 719.0, 716.0, 719.0, 716.0, 716.0, 716.0, 717.0, 721.0, 719.0, 717.0, 719.0, 716.0, 718.0, 717.0, 716.0, 720.0, 716.0, 718.0, 717.0, 717.0, 722.0, 716.0, 715.0, 718.0, 716.0, 716.0, 716.0, 718.0, 717.0, 718.0, 716.0, 717.0, 716.0, 716.0, 719.0, 716.0, 716.0, 717.0, 716.0, 717.0, 721.0, 718.0, 721.0, 717.0, 718.0, 720.0, 717.0, 717.0, 717.0, 719.0, 718.0, 721.0, 719.0, 717.0, 722.0, 716.0, 716.0, 717.0, 717.0, 722.0, 716.0, 717.0, 718.0, 716.0, 718.0, 716.0, 719.0, 717.0, 719.0, 717.0, 717.0, 717.0, 717.0, 722.0, 717.0, 720.0, 718.0, 718.0, 718.0, 720.0, 719.0, 719.0, 724.0, 718.0, 720.0, 718.0, 718.0, 720.0, 716.0, 721.0, 717.0, 719.0, 717.0, 719.0, 718.0, 721.0, 717.0, 720.0, 717.0, 720.0, 720.0, 717.0, 722.0, 717.0, 718.0, 717.0, 717.0, 721.0, 717.0, 719.0, 717.0, 717.0, 723.0, 717.0, 719.0, 721.0, 716.0, 720.0, 716.0, 717.0, 722.0, 716.0, 718.0, 717.0, 717.0, 717.0, 719.0, 717.0, 721.0, 718.0, 720.0, 721.0, 715.0, 717.0]
    },
    "slices": {}
  }
}