{
  "AcquisitionMatrixPE": 96,
  "AcquisitionNumber": 1,
  "AcquisitionTime": "11:12:21.450000",
  "BandwidthPerPixelPhaseEncode": 18.939,
  "BaseResolution": 96,
  "BodyPartExamined": "BRAIN",
  "ConsistencyInfo": "N4_VE11C_LATEST_20160120",
  "ConversionSoftware": "dcm2niix",
  "ConversionSoftwareVersion": "v1.0.20171215 (OpenJPEG build) GCC6.3.0",
  "DerivedVendorReportedEchoSpacing": 0.000550011,
  "DeviceSerialNumber": "66112",
  "DwellTime": 2.2e-06,
  "EchoTime": 0.033,
  "EchoTrainLength": 96,
  "EffectiveEchoSpacing": 0.000550011,
  "FlipAngle": 59,
  "ImageOrientationPatientDICOM": [0.997804, 0.0376825, 0.0544664, -0.0290912, 0.98815, -0.150709],
  "ImageType": [
    "ORIGINAL",
    "PRIMARY",
    "FMRI",
    "NONE",
    "ND",
    "NORM",
    "MOSAIC"
],
  "InPlanePhaseEncodingDirectionDICOM": "COL",
  "InstitutionAddress": "Maynard_3_Hanover_NH_US_03755",
  "InstitutionName": "Dartmouth_College_-_PBS",
  "InstitutionalDepartmentName": "Department",
  "MRAcquisitionType": "2D",
  "MagneticFieldStrength": 3,
  "Manufacturer": "Siemens",
  "ManufacturersModelName": "Prisma",
  "Modality": "MR",
  "MultibandAccelerationFactor": 4,
  "PartialFourier": 1,
  "PatientPosition": "HFS",
  "PercentPhaseFOV": 100,
  "PhaseEncodingDirection": "j-",
  "PhaseEncodingSteps": 96,
  "PhaseResolution": 1,
  "PixelBandwidth": 2365,
  "ProcedureStepDescription": "Gobbini_Matteo_1038_hyperface",
  "ProtocolName": "func_run-02_task-visualmemory",
  "PulseSequenceDetails": "%SiemensSeq%_ep2d_bold",
  "ReceiveCoilActiveElements": "HEA;HEP",
  "ReceiveCoilName": "Head_32",
  "ReconMatrixPE": 96,
  "RepetitionTime": 1,
  "SAR": 0.0506095,
  "ScanOptions": "FS",
  "ScanningSequence": "EP",
  "SequenceName": "_epfid2d1_96",
  "SequenceVariant": "SK",
  "SeriesDescription": "func_run-02_task-visualmemory",
  "SeriesNumber": 14,
  "ShimSetting": [4146, -7686, -7320, 721, -33, -135, -83, 61],
  "SliceThickness": 2.5,
  "SliceTiming": [0.735, 0, 0.49, 0.08, 0.57, 0.1625, 0.6525, 0.325, 0.815, 0.4075, 0.8975, 0.245, 0.735, 0, 0.49, 0.08, 0.57, 0.1625, 0.6525, 0.325, 0.815, 0.4075, 0.8975, 0.245, 0.735, 0, 0.49, 0.08, 0.57, 0.1625, 0.6525, 0.325, 0.815, 0.4075, 0.8975, 0.245, 0.735, 0, 0.49, 0.08, 0.57, 0.1625, 0.6525, 0.325, 0.815, 0.4075, 0.8975, 0.245],
  "SoftwareVersions": "syngo_MR_E11",
  "SpacingBetweenSlices": 2.5,
  "StationName": "AWP66112",
  "TotalReadoutTime": 0.0522511,
  "TxRefAmp": 234.056,
  "dcmmeta_affine": [
    [-2.4945108890533447, -0.07272811979055405, 0.1487501561641693, 123.3690414428711],
    [-0.09420626610517502, 2.4703750610351562, -0.37198492884635925, -100.51276397705078],
    [0.13616596162319183, 0.3767734467983246, 2.467691421508789, -94.41930389404297],
    [0.0, 0.0, 0.0, 1.0]
],
  "dcmmeta_reorient_transform": [
    [0.0, -1.0, 0.0, 95.0],
    [1.0, 0.0, 0.0, 0.0],
    [0.0, 0.0, 1.0, 0.0],
    [0.0, 0.0, 0.0, 1.0]
],
  "dcmmeta_shape": [96, 96, 48, 288],
  "dcmmeta_slice_dim": 2,
  "dcmmeta_version": 0.6,
  "global": {
    "const": {
      "AccessionNumber": "A001340",
      "AcquisitionMatrix": [96, 0, 0, 96],
      "AngioFlag": "N",
      "BitsAllocated": 16,
      "BitsStored": 12,
      "BodyPartExamined": "BRAIN",
      "Columns": 672,
      "EchoNumbers": 1,
      "EchoTime": 33.0,
      "EchoTrainLength": 96,
      "FlipAngle": 59.0,
      "HighBit": 11,
      "ImageOrientationPatient": [0.99780431020281, 0.03768250512379, 0.05446638732555, -0.0290912465089, 0.98814997946375, -0.1507093808041],
      "ImagePositionPatient": [-813.93327365853, -872.77224409241, 10.669126728986],
      "ImageType": [
        "ORIGINAL",
        "PRIMARY",
        "FMRI",
        "NONE",
        "ND",
        "NORM",
        "MOSAIC"
],
      "ImagedNucleus": "1H",
      "ImagingFrequency": 123.252294,
      "InPlanePhaseEncodingDirection": "COL",
      "MRAcquisitionType": "2D",
      "MagneticFieldStrength": 3.0,
      "Manufacturer": "SIEMENS",
      "ManufacturerModelName": "Prisma",
      "Modality": "MR",
      "NumberOfAverages": 1.0,
      "NumberOfPhaseEncodingSteps": 96,
      "PercentPhaseFieldOfView": 100.0,
      "PercentSampling": 100.0,
      "PerformedProcedureStepStartTime": "105554.137000",
      "PhotometricInterpretation": "MONOCHROME2",
      "PixelBandwidth": 2365.0,
      "PixelRepresentation": 0,
      "PixelSpacing": [2.5, 2.5],
      "PositionReferenceIndicator": "",
      "ProtocolName": "func_run-02_task-visualmemory",
      "RepetitionTime": 1000.0,
      "Rows": 672,
      "SAR": 0.05060948682152,
      "SamplesPerPixel": 1,
      "ScanOptions": "FS",
      "ScanningSequence": "EP",
      "SequenceName": "*epfid2d1_96",
      "SequenceVariant": "SK",
      "SeriesDescription": "func_run-02_task-visualmemory",
      "SeriesNumber": 14,
      "SeriesTime": "111222.246000",
      "SliceLocation": -70.902922538338,
      "SliceThickness": 2.5,
      "SmallestImagePixelValue": 0,
      "SoftwareVersions": "syngo MR E11",
      "SpacingBetweenSlices": 2.4999999527747,
      "SpecificCharacterSet": "ISO_IR 100",
      "StudyID": "3",
      "StudyTime": "105554.052000",
      "TransmitCoilName": "Body",
      "VariableFlipAngleFlag": "N",
      "WindowCenterWidthExplanation": "Algo1",
      "dBdt": 0.0},
    "slices": {}
  },
  "time": {
    "samples": {
      "AcquisitionNumber": [1, 2, 3, 4, 5, 6, 7, 8, 9, 10, 11, 12, 13, 14, 15, 16, 17, 18, 19, 20, 21, 22, 23, 24, 25, 26, 27, 28, 29, 30, 31, 32, 33, 34, 35, 36, 37, 38, 39, 40, 41, 42, 43, 44, 45, 46, 47, 48, 49, 50, 51, 52, 53, 54, 55, 56, 57, 58, 59, 60, 61, 62, 63, 64, 65, 66, 67, 68, 69, 70, 71, 72, 73, 74, 75, 76, 77, 78, 79, 80, 81, 82, 83, 84, 85, 86, 87, 88, 89, 90, 91, 92, 93, 94, 95, 96, 97, 98, 99, 100, 101, 102, 103, 104, 105, 106, 107, 108, 109, 110, 111, 112, 113, 114, 115, 116, 117, 118, 119, 120, 121, 122, 123, 124, 125, 126, 127, 128, 129, 130, 131, 132, 133, 134, 135, 136, 137, 138, 139, 140, 141, 142, 143, 144, 145, 146, 147, 148, 149, 150, 151, 152, 153, 154, 155, 156, 157, 158, 159, 160, 161, 162, 163, 164, 165, 166, 167, 168, 169, 170, 171, 172, 173, 174, 175, 176, 177, 178, 179, 180, 181, 182, 183, 184, 185, 186, 187, 188, 189, 190, 191, 192, 193, 194, 195, 196, 197, 198, 199, 200, 201, 202, 203, 204, 205, 206, 207, 208, 209, 210, 211, 212, 213, 214, 215, 216, 217, 218, 219, 220, 221, 222, 223, 224, 225, 226, 227, 228, 229, 230, 231, 232, 233, 234, 235, 236, 237, 238, 239, 240, 241, 242, 243, 244, 245, 246, 247, 248, 249, 250, 251, 252, 253, 254, 255, 256, 257, 258, 259, 260, 261, 262, 263, 264, 265, 266, 267, 268, 269, 270, 271, 272, 273, 274, 275, 276, 277, 278, 279, 280, 281, 282, 283, 284, 285, 286, 287, 288],
      "AcquisitionTime": ["111221.450000", "111222.450000", "111223.450000", "111224.450000", "111225.450000", "111226.450000", "111227.450000", "111228.450000", "111229.450000", "111230.450000", "111231.450000", "111232.450000", "111233.450000", "111234.450000", "111235.450000", "111236.450000", "111237.450000", "111238.450000", "111239.450000", "111240.450000", "111241.450000", "111242.450000", "111243.450000", "111244.450000", "111245.450000", "111246.450000", "111247.450000", "111248.450000", "111249.450000", "111250.450000", "111251.450000", "111252.450000", "111253.450000", "111254.450000", "111255.450000", "111256.450000", "111257.450000", "111258.450000", "111259.450000", "111300.450000", "111301.450000", "111302.450000", "111303.450000", "111304.450000", "111305.450000", "111306.450000", "111307.450000", "111308.450000", "111309.450000", "111310.450000", "111311.450000", "111312.450000", "111313.450000", "111314.450000", "111315.450000", "111316.450000", "111317.450000", "111318.450000", "111319.450000", "111320.450000", "111321.450000", "111322.450000", "111323.450000", "111324.450000", "111325.450000", "111326.450000", "111327.450000", "111328.450000", "111329.450000", "111330.450000", "111331.450000", "111332.450000", "111333.450000", "111334.450000", "111335.450000", "111336.450000", "111337.450000", "111338.450000", "111339.450000", "111340.450000", "111341.450000", "111342.450000", "111343.450000", "111344.450000", "111345.450000", "111346.450000", "111347.450000", "111348.450000", "111349.450000", "111350.450000", "111351.450000", "111352.450000", "111353.450000", "111354.450000", "111355.450000", "111356.450000", "111357.450000", "111358.450000", "111359.450000", "111400.450000", "111401.450000", "111402.450000", "111403.450000", "111404.450000", "111405.450000", "111406.450000", "111407.450000", "111408.450000", "111409.450000", "111410.450000", "111411.450000", "111412.450000", "111413.450000", "111414.450000", "111415.450000", "111416.450000", "111417.450000", "111418.450000", "111419.450000", "111420.450000", "111421.450000", "111422.450000", "111423.450000", "111424.450000", "111425.450000", "111426.450000", "111427.450000", "111428.450000", "111429.450000", "111430.450000", "111431.450000", "111432.450000", "111433.450000", "111434.450000", "111435.450000", "111436.450000", "111437.450000", "111438.450000", "111439.450000", "111440.450000", "111441.450000", "111442.450000", "111443.450000", "111444.450000", "111445.450000", "111446.450000", "111447.450000", "111448.450000", "111449.450000", "111450.450000", "111451.450000", "111452.450000", "111453.450000", "111454.450000", "111455.450000", "111456.450000", "111457.450000", "111458.450000", "111459.450000", "111500.450000", "111501.450000", "111502.450000", "111503.450000", "111504.450000", "111505.450000", "111506.450000", "111507.450000", "111508.450000", "111509.450000", "111510.450000", "111511.450000", "111512.450000", "111513.450000", "111514.450000", "111515.450000", "111516.450000", "111517.450000", "111518.450000", "111519.450000", "111520.450000", "111521.450000", "111522.450000", "111523.450000", "111524.450000", "111525.450000", "111526.450000", "111527.450000", "111528.450000", "111529.450000", "111530.450000", "111531.450000", "111532.450000", "111533.450000", "111534.450000", "111535.450000", "111536.450000", "111537.450000", "111538.450000", "111539.450000", "111540.450000", "111541.450000", "111542.450000", "111543.450000", "111544.450000", "111545.450000", "111546.450000", "111547.450000", "111548.450000", "111549.450000", "111550.450000", "111551.450000", "111552.450000", "111553.450000", "111554.450000", "111555.450000", "111556.450000", "111557.450000", "111558.450000", "111559.450000", "111600.450000", "111601.450000", "111602.450000", "111603.450000", "111604.450000", "111605.450000", "111606.450000", "111607.450000", "111608.450000", "111609.450000", "111610.450000", "111611.450000", "111612.450000", "111613.450000", "111614.450000", "111615.450000", "111616.450000", "111617.450000", "111618.450000", "111619.450000", "111620.450000", "111621.450000", "111622.450000", "111623.450000", "111624.450000", "111625.450000", "111626.450000", "111627.450000", "111628.450000", "111629.450000", "111630.450000", "111631.450000", "111632.450000", "111633.450000", "111634.450000", "111635.450000", "111636.450000", "111637.450000", "111638.450000", "111639.450000", "111640.450000", "111641.450000", "111642.450000", "111643.450000", "111644.450000", "111645.450000", "111646.450000", "111647.450000", "111648.450000", "111649.450000", "111650.450000", "111651.450000", "111652.450000", "111653.450000", "111654.450000", "111655.450000", "111656.450000", "111657.450000", "111658.450000", "111659.450000", "111700.450000", "111701.450000", "111702.450000", "111703.450000", "111704.450000", "111705.450000", "111706.450000", "111707.450000", "111708.450000"],
      "ContentTime": ["111222.250000", "111223.094000", "111224.169000", "111225.105000", "111226.078000", "111227.101000", "111228.069000", "111229.073000", "111230.054000", "111231.092000", "111232.077000", "111233.114000", "111234.079000", "111235.128000", "111236.078000", "111237.106000", "111238.084000", "111239.076000", "111240.080000", "111241.120000", "111242.096000", "111243.088000", "111244.099000", "111245.071000", "111246.085000", "111247.104000", "111248.071000", "111249.078000", "111250.075000", "111251.116000", "111252.098000", "111253.097000", "111254.091000", "111255.096000", "111256.107000", "111257.071000", "111258.079000", "111259.075000", "111300.071000", "111301.061000", "111302.095000", "111303.075000", "111304.073000", "111305.048000", "111306.119000", "111307.073000", "111308.071000", "111309.103000", "111310.080000", "111311.074000", "111312.074000", "111313.101000", "111314.081000", "111315.086000", "111316.060000", "111317.086000", "111318.068000", "111319.125000", "111320.084000", "111321.072000", "111322.062000", "111323.072000", "111324.070000", "111325.068000", "111326.106000", "111327.112000", "111328.069000", "111329.093000", "111330.122000", "111331.095000", "111332.049000", "111333.085000", "111334.133000", "111335.099000", "111336.085000", "111337.082000", "111338.067000", "111339.071000", "111340.069000", "111341.097000", "111342.097000", "111343.098000", "111344.095000", "111345.082000", "111346.098000", "111347.087000", "111348.070000", "111349.065000", "111350.090000", "111351.072000", "111352.038000", "111353.074000", "111354.076000", "111355.099000", "111356.090000", "111357.071000", "111358.058000", "111359.066000", "111400.082000", "111401.069000", "111402.059000", "111403.095000", "111404.116000", "111405.063000", "111406.103000", "111407.096000", "111408.084000", "111409.076000", "111410.071000", "111411.117000", "111412.040000", "111413.088000", "111414.088000", "111415.074000", "111416.106000", "111417.110000", "111418.084000", "111419.135000", "111420.100000", "111421.098000", "111422.067000", "111423.081000", "111424.128000", "111425.091000", "111426.086000", "111427.079000", "111428.112000", "111429.081000", "111430.064000", "111431.094000", "111432.121000", "111433.084000", "111434.068000", "111435.068000", "111436.105000", "111437.099000", "111438.102000", "111439.153000", "111440.046000", "111441.070000", "111442.113000", "111443.093000", "111444.091000", "111445.074000", "111446.109000", "111447.094000", "111448.080000", "111449.077000", "111450.099000", "111451.057000", "111452.089000", "111453.091000", "111454.081000", "111455.087000", "111456.071000", "111457.089000", "111458.089000", "111459.097000", "111500.079000", "111501.088000", "111502.090000", "111503.096000", "111504.102000", "111505.061000", "111506.085000", "111507.091000", "111508.085000", "111509.076000", "111510.127000", "111511.107000", "111512.093000", "111513.101000", "111514.107000", "111515.082000", "111516.115000", "111517.114000", "111518.060000", "111519.055000", "111520.094000", "111521.077000", "111522.102000", "111523.091000", "111524.078000", "111525.094000", "111526.116000", "111527.079000", "111528.063000", "111529.116000", "111530.162000", "111531.085000", "111532.087000", "111533.088000", "111534.093000", "111535.068000", "111536.092000", "111537.119000", "111538.068000", "111539.079000", "111540.071000", "111541.091000", "111542.099000", "111543.085000", "111544.095000", "111545.081000", "111546.088000", "111547.123000", "111548.078000", "111549.083000", "111550.104000", "111551.116000", "111552.081000", "111553.123000", "111554.092000", "111555.101000", "111556.058000", "111557.100000", "111558.104000", "111559.087000", "111600.084000", "111601.064000", "111602.080000", "111603.114000", "111604.115000", "111605.074000", "111606.083000", "111607.097000", "111608.088000", "111609.084000", "111610.067000", "111611.090000", "111612.092000", "111613.083000", "111614.091000", "111615.084000", "111616.079000", "111617.095000", "111618.080000", "111619.098000", "111620.073000", "111621.091000", "111622.093000", "111623.095000", "111624.089000", "111625.064000", "111626.074000", "111627.087000", "111628.081000", "111629.082000", "111630.092000", "111631.078000", "111632.096000", "111633.099000", "111634.081000", "111635.110000", "111636.086000", "111637.065000", "111638.094000", "111639.070000", "111640.057000", "111641.067000", "111642.092000", "111643.079000", "111644.086000", "111645.102000", "111646.087000", "111647.100000", "111648.085000", "111649.099000", "111650.076000", "111651.079000", "111652.091000", "111653.085000", "111654.093000", "111655.085000", "111656.063000", "111657.064000", "111658.094000", "111659.097000", "111700.088000", "111701.095000", "111702.159000", "111703.088000", "111704.081000", "111705.061000", "111706.091000", "111707.125000", "111708.099000", "111709.111000"],
      "InstanceCreationTime": ["111222.250000", "111223.094000", "111224.169000", "111225.105000", "111226.078000", "111227.101000", "111228.069000", "111229.073000", "111230.054000", "111231.092000", "111232.077000", "111233.114000", "111234.079000", "111235.128000", "111236.078000", "111237.106000", "111238.084000", "111239.076000", "111240.080000", "111241.120000", "111242.096000", "111243.088000", "111244.099000", "111245.071000", "111246.085000", "111247.104000", "111248.071000", "111249.078000", "111250.075000", "111251.116000", "111252.098000", "111253.097000", "111254.091000", "111255.096000", "111256.107000", "111257.071000", "111258.079000", "111259.075000", "111300.071000", "111301.061000", "111302.095000", "111303.075000", "111304.073000", "111305.048000", "111306.119000", "111307.073000", "111308.071000", "111309.103000", "111310.080000", "111311.074000", "111312.074000", "111313.101000", "111314.081000", "111315.086000", "111316.060000", "111317.086000", "111318.068000", "111319.125000", "111320.084000", "111321.072000", "111322.062000", "111323.072000", "111324.070000", "111325.068000", "111326.106000", "111327.112000", "111328.069000", "111329.093000", "111330.122000", "111331.095000", "111332.049000", "111333.085000", "111334.133000", "111335.099000", "111336.085000", "111337.082000", "111338.067000", "111339.071000", "111340.069000", "111341.097000", "111342.097000", "111343.098000", "111344.095000", "111345.082000", "111346.098000", "111347.087000", "111348.070000", "111349.065000", "111350.090000", "111351.072000", "111352.038000", "111353.074000", "111354.076000", "111355.099000", "111356.090000", "111357.071000", "111358.058000", "111359.066000", "111400.082000", "111401.069000", "111402.059000", "111403.095000", "111404.116000", "111405.063000", "111406.103000", "111407.096000", "111408.084000", "111409.076000", "111410.071000", "111411.117000", "111412.040000", "111413.088000", "111414.088000", "111415.074000", "111416.106000", "111417.110000", "111418.084000", "111419.135000", "111420.100000", "111421.098000", "111422.067000", "111423.081000", "111424.128000", "111425.091000", "111426.086000", "111427.079000", "111428.112000", "111429.081000", "111430.064000", "111431.094000", "111432.121000", "111433.084000", "111434.068000", "111435.068000", "111436.105000", "111437.099000", "111438.102000", "111439.153000", "111440.046000", "111441.070000", "111442.113000", "111443.093000", "111444.091000", "111445.074000", "111446.109000", "111447.094000", "111448.080000", "111449.077000", "111450.099000", "111451.057000", "111452.089000", "111453.091000", "111454.081000", "111455.087000", "111456.071000", "111457.089000", "111458.089000", "111459.097000", "111500.079000", "111501.088000", "111502.090000", "111503.096000", "111504.102000", "111505.061000", "111506.085000", "111507.091000", "111508.085000", "111509.076000", "111510.127000", "111511.107000", "111512.093000", "111513.101000", "111514.107000", "111515.082000", "111516.115000", "111517.114000", "111518.060000", "111519.055000", "111520.094000", "111521.077000", "111522.102000", "111523.091000", "111524.078000", "111525.094000", "111526.116000", "111527.079000", "111528.063000", "111529.116000", "111530.162000", "111531.085000", "111532.087000", "111533.088000", "111534.093000", "111535.068000", "111536.092000", "111537.119000", "111538.068000", "111539.079000", "111540.071000", "111541.091000", "111542.099000", "111543.085000", "111544.095000", "111545.081000", "111546.088000", "111547.123000", "111548.078000", "111549.083000", "111550.104000", "111551.116000", "111552.081000", "111553.123000", "111554.092000", "111555.101000", "111556.058000", "111557.100000", "111558.104000", "111559.087000", "111600.084000", "111601.064000", "111602.080000", "111603.114000", "111604.115000", "111605.074000", "111606.083000", "111607.097000", "111608.088000", "111609.084000", "111610.067000", "111611.090000", "111612.092000", "111613.083000", "111614.091000", "111615.084000", "111616.079000", "111617.095000", "111618.080000", "111619.098000", "111620.073000", "111621.091000", "111622.093000", "111623.095000", "111624.089000", "111625.064000", "111626.074000", "111627.087000", "111628.081000", "111629.082000", "111630.092000", "111631.078000", "111632.096000", "111633.099000", "111634.081000", "111635.110000", "111636.086000", "111637.065000", "111638.094000", "111639.070000", "111640.057000", "111641.067000", "111642.092000", "111643.079000", "111644.086000", "111645.102000", "111646.087000", "111647.100000", "111648.085000", "111649.099000", "111650.076000", "111651.079000", "111652.091000", "111653.085000", "111654.093000", "111655.085000", "111656.063000", "111657.064000", "111658.094000", "111659.097000", "111700.088000", "111701.095000", "111702.159000", "111703.088000", "111704.081000", "111705.061000", "111706.091000", "111707.125000", "111708.099000", "111709.111000"],
      "InstanceNumber": [1, 2, 3, 4, 5, 6, 7, 8, 9, 10, 11, 12, 13, 14, 15, 16, 17, 18, 19, 20, 21, 22, 23, 24, 25, 26, 27, 28, 29, 30, 31, 32, 33, 34, 35, 36, 37, 38, 39, 40, 41, 42, 43, 44, 45, 46, 47, 48, 49, 50, 51, 52, 53, 54, 55, 56, 57, 58, 59, 60, 61, 62, 63, 64, 65, 66, 67, 68, 69, 70, 71, 72, 73, 74, 75, 76, 77, 78, 79, 80, 81, 82, 83, 84, 85, 86, 87, 88, 89, 90, 91, 92, 93, 94, 95, 96, 97, 98, 99, 100, 101, 102, 103, 104, 105, 106, 107, 108, 109, 110, 111, 112, 113, 114, 115, 116, 117, 118, 119, 120, 121, 122, 123, 124, 125, 126, 127, 128, 129, 130, 131, 132, 133, 134, 135, 136, 137, 138, 139, 140, 141, 142, 143, 144, 145, 146, 147, 148, 149, 150, 151, 152, 153, 154, 155, 156, 157, 158, 159, 160, 161, 162, 163, 164, 165, 166, 167, 168, 169, 170, 171, 172, 173, 174, 175, 176, 177, 178, 179, 180, 181, 182, 183, 184, 185, 186, 187, 188, 189, 190, 191, 192, 193, 194, 195, 196, 197, 198, 199, 200, 201, 202, 203, 204, 205, 206, 207, 208, 209, 210, 211, 212, 213, 214, 215, 216, 217, 218, 219, 220, 221, 222, 223, 224, 225, 226, 227, 228, 229, 230, 231, 232, 233, 234, 235, 236, 237, 238, 239, 240, 241, 242, 243, 244, 245, 246, 247, 248, 249, 250, 251, 252, 253, 254, 255, 256, 257, 258, 259, 260, 261, 262, 263, 264, 265, 266, 267, 268, 269, 270, 271, 272, 273, 274, 275, 276, 277, 278, 279, 280, 281, 282, 283, 284, 285, 286, 287, 288],
      "LargestImagePixelValue": [857, 677, 1157, 664, 937, 829, 668, 1293, 689, 722, 915, 665, 703, 780, 708, 842, 673, 708, 1168, 677, 851, 692, 681, 691, 686, 1047, 685, 846, 890, 666, 951, 687, 673, 1121, 658, 679, 1125, 691, 879, 662, 686, 711, 654, 1154, 674, 722, 977, 688, 1025, 689, 719, 688, 684, 1063, 706, 847, 1153, 656, 705, 749, 684, 935, 697, 684, 1252, 672, 741, 848, 679, 734, 709, 839, 908, 807, 855, 1275, 748, 699, 717, 670, 691, 866, 873, 738, 733, 1223, 693, 702, 887, 679, 690, 807, 703, 680, 934, 1097, 753, 900, 1060, 702, 692, 1011, 734, 755, 1082, 730, 699, 931, 709, 720, 889, 713, 716, 820, 889, 723, 692, 710, 690, 844, 711, 711, 931, 856, 686, 1071, 766, 693, 1034, 754, 696, 1022, 879, 691, 953, 736, 692, 903, 733, 716, 897, 762, 717, 1165, 728, 736, 857, 696, 921, 685, 781, 1131, 684, 906, 662, 840, 857, 799, 713, 694, 1251, 667, 803, 716, 709, 1047, 676, 718, 981, 713, 856, 733, 696, 984, 780, 703, 1161, 892, 699, 1064, 700, 730, 693, 719, 1023, 671, 709, 1101, 671, 704, 1030, 712, 698, 934, 964, 712, 903, 894, 695, 1053, 770, 693, 1009, 723, 687, 1054, 702, 690, 1048, 723, 672, 1055, 700, 696, 1011, 687, 688, 987, 848, 682, 814, 694, 686, 945, 883, 706, 832, 1263, 676, 718, 1050, 664, 718, 716, 679, 974, 678, 688, 1245, 684, 692, 833, 703, 842, 901, 700, 956, 906, 687, 844, 666, 673, 651, 866, 652, 676, 1384, 912, 807, 995, 663, 1025, 718, 682, 921, 775, 746, 818, 730, 749, 668, 711, 909, 654, 758, 1008, 657, 936, 661, 699, 1233, 697, 786, 1072, 681, 652, 654, 771],
      "WindowCenter": [335.0, 333.0, 336.0, 332.0, 334.0, 334.0, 331.0, 336.0, 332.0, 332.0, 333.0, 331.0, 332.0, 333.0, 332.0, 334.0, 332.0, 333.0, 335.0, 331.0, 333.0, 332.0, 332.0, 332.0, 333.0, 335.0, 332.0, 333.0, 334.0, 332.0, 334.0, 332.0, 332.0, 335.0, 331.0, 332.0, 335.0, 332.0, 333.0, 331.0, 332.0, 332.0, 332.0, 335.0, 332.0, 332.0, 334.0, 332.0, 335.0, 332.0, 332.0, 332.0, 332.0, 335.0, 333.0, 333.0, 335.0, 331.0, 332.0, 332.0, 332.0, 334.0, 332.0, 332.0, 336.0, 332.0, 332.0, 333.0, 332.0, 332.0, 333.0, 334.0, 334.0, 333.0, 333.0, 335.0, 332.0, 331.0, 332.0, 332.0, 332.0, 334.0, 334.0, 332.0, 333.0, 335.0, 332.0, 332.0, 334.0, 332.0, 332.0, 334.0, 333.0, 333.0, 335.0, 336.0, 333.0, 334.0, 335.0, 332.0, 332.0, 335.0, 333.0, 333.0, 336.0, 333.0, 332.0, 334.0, 333.0, 332.0, 334.0, 332.0, 332.0, 334.0, 334.0, 332.0, 333.0, 333.0, 333.0, 335.0, 333.0, 333.0, 335.0, 334.0, 333.0, 335.0, 333.0, 333.0, 335.0, 333.0, 332.0, 335.0, 334.0, 332.0, 334.0, 332.0, 332.0, 334.0, 333.0, 333.0, 335.0, 333.0, 333.0, 336.0, 332.0, 332.0, 334.0, 332.0, 334.0, 332.0, 333.0, 336.0, 333.0, 334.0, 331.0, 334.0, 334.0, 333.0, 332.0, 333.0, 336.0, 332.0, 333.0, 332.0, 332.0, 335.0, 332.0, 332.0, 335.0, 333.0, 334.0, 332.0, 332.0, 335.0, 333.0, 332.0, 335.0, 334.0, 332.0, 335.0, 332.0, 333.0, 332.0, 332.0, 335.0, 332.0, 332.0, 335.0, 332.0, 333.0, 335.0, 333.0, 332.0, 335.0, 334.0, 332.0, 334.0, 334.0, 332.0, 335.0, 333.0, 332.0, 334.0, 332.0, 332.0, 335.0, 332.0, 332.0, 335.0, 332.0, 332.0, 335.0, 332.0, 332.0, 335.0, 332.0, 332.0, 334.0, 333.0, 332.0, 333.0, 332.0, 332.0, 335.0, 334.0, 333.0, 334.0, 336.0, 332.0, 333.0, 335.0, 332.0, 332.0, 332.0, 332.0, 335.0, 332.0, 332.0, 336.0, 332.0, 332.0, 334.0, 333.0, 334.0, 334.0, 332.0, 334.0, 334.0, 332.0, 334.0, 332.0, 333.0, 333.0, 335.0, 333.0, 333.0, 337.0, 334.0, 333.0, 334.0, 332.0, 335.0, 332.0, 332.0, 334.0, 333.0, 332.0, 333.0, 333.0, 333.0, 332.0, 332.0, 334.0, 333.0, 333.0, 335.0, 333.0, 335.0, 333.0, 333.0, 337.0, 332.0, 333.0, 335.0, 332.0, 332.0, 332.0, 334.0],
      "WindowWidth": [723.0, 719.0, 723.0, 717.0, 721.0, 719.0, 716.0, 722.0, 717.0, 717.0, 719.0, 716.0, 716.0, 718.0, 717.0, 719.0, 717.0, 718.0, 722.0, 716.0, 718.0, 717.0, 717.0, 718.0, 718.0, 721.0, 717.0, 718.0, 719.0, 717.0, 719.0, 717.0, 717.0, 722.0, 716.0, 717.0, 721.0, 716.0, 719.0, 716.0, 716.0, 718.0, 717.0, 722.0, 717.0, 718.0, 720.0, 717.0, 721.0, 717.0, 718.0, 717.0, 717.0, 721.0, 718.0, 718.0, 721.0, 716.0, 716.0, 717.0, 717.0, 720.0, 718.0, 717.0, 723.0, 717.0, 718.0, 718.0, 716.0, 717.0, 718.0, 720.0, 720.0, 718.0, 718.0, 722.0, 716.0, 716.0, 716.0, 717.0, 718.0, 721.0, 720.0, 718.0, 718.0, 722.0, 717.0, 716.0, 719.0, 717.0, 718.0, 719.0, 718.0, 718.0, 722.0, 723.0, 719.0, 720.0, 721.0, 718.0, 717.0, 721.0, 719.0, 719.0, 722.0, 719.0, 718.0, 720.0, 718.0, 718.0, 720.0, 718.0, 718.0, 719.0, 720.0, 718.0, 718.0, 719.0, 719.0, 721.0, 719.0, 719.0, 722.0, 721.0, 718.0, 722.0, 719.0, 718.0, 722.0, 719.0, 718.0, 721.0, 720.0, 717.0, 720.0, 718.0, 718.0, 720.0, 719.0, 719.0, 722.0, 719.0, 719.0, 723.0, 718.0, 718.0, 719.0, 717.0, 720.0, 717.0, 719.0, 723.0, 718.0, 720.0, 716.0, 719.0, 719.0, 719.0, 718.0, 718.0, 723.0, 717.0, 718.0, 718.0, 718.0, 722.0, 717.0, 718.0, 721.0, 718.0, 719.0, 718.0, 718.0, 721.0, 719.0, 718.0, 722.0, 719.0, 717.0, 721.0, 717.0, 718.0, 717.0, 717.0, 721.0, 717.0, 717.0, 721.0, 717.0, 718.0, 722.0, 718.0, 718.0, 721.0, 720.0, 718.0, 719.0, 719.0, 717.0, 721.0, 718.0, 717.0, 720.0, 717.0, 717.0, 721.0, 717.0, 717.0, 721.0, 717.0, 717.0, 721.0, 717.0, 717.0, 721.0, 717.0, 717.0, 720.0, 718.0, 716.0, 718.0, 717.0, 717.0, 721.0, 720.0, 718.0, 720.0, 723.0, 717.0, 718.0, 721.0, 717.0, 718.0, 718.0, 717.0, 721.0, 717.0, 717.0, 723.0, 717.0, 718.0, 719.0, 718.0, 721.0, 721.0, 718.0, 720.0, 720.0, 717.0, 719.0, 717.0, 718.0, 719.0, 722.0, 719.0, 719.0, 724.0, 720.0, 719.0, 720.0, 717.0, 721.0, 718.0, 717.0, 720.0, 718.0, 718.0, 719.0, 718.0, 719.0, 717.0, 718.0, 721.0, 718.0, 719.0, 721.0, 718.0, 722.0, 718.0, 718.0, 724.0, 718.0, 719.0, 722.0, 717.0, 717.0, 717.0, 721.0]
    },
    "slices": {}
  }
}