{
  "AcquisitionMatrixPE": 96,
  "AcquisitionNumber": 1,
  "AcquisitionTime": "11:33:1.840000",
  "BandwidthPerPixelPhaseEncode": 18.939,
  "BaseResolution": 96,
  "BodyPartExamined": "BRAIN",
  "ConsistencyInfo": "N4_VE11C_LATEST_20160120",
  "ConversionSoftware": "dcm2niix",
  "ConversionSoftwareVersion": "v1.0.20171215 (OpenJPEG build) GCC6.3.0",
  "DerivedVendorReportedEchoSpacing": 0.000550011,
  "DeviceSerialNumber": "66112",
  "DwellTime": 2.2e-06,
  "EchoTime": 0.033,
  "EchoTrainLength": 96,
  "EffectiveEchoSpacing": 0.000550011,
  "FlipAngle": 59,
  "ImageOrientationPatientDICOM": [0.997804, 0.0376825, 0.0544664, -0.0290912, 0.98815, -0.150709],
  "ImageType": [
    "ORIGINAL",
    "PRIMARY",
    "FMRI",
    "NONE",
    "ND",
    "NORM",
    "MOSAIC"
],
  "InPlanePhaseEncodingDirectionDICOM": "COL",
  "InstitutionAddress": "Maynard_3_Hanover_NH_US_03755",
  "InstitutionName": "Dartmouth_College_-_PBS",
  "InstitutionalDepartmentName": "Department",
  "MRAcquisitionType": "2D",
  "MagneticFieldStrength": 3,
  "Manufacturer": "Siemens",
  "ManufacturersModelName": "Prisma",
  "Modality": "MR",
  "MultibandAccelerationFactor": 4,
  "PartialFourier": 1,
  "PatientPosition": "HFS",
  "PercentPhaseFOV": 100,
  "PhaseEncodingDirection": "j-",
  "PhaseEncodingSteps": 96,
  "PhaseResolution": 1,
  "PixelBandwidth": 2365,
  "ProcedureStepDescription": "Gobbini_Matteo_1038_hyperface",
  "ProtocolName": "func_run-06_task-visualmemory",
  "PulseSequenceDetails": "%SiemensSeq%_ep2d_bold",
  "ReceiveCoilActiveElements": "HEA;HEP",
  "ReceiveCoilName": "Head_32",
  "ReconMatrixPE": 96,
  "RepetitionTime": 1,
  "SAR": 0.0506095,
  "ScanOptions": "FS",
  "ScanningSequence": "EP",
  "SequenceName": "_epfid2d1_96",
  "SequenceVariant": "SK",
  "SeriesDescription": "func_run-06_task-visualmemory",
  "SeriesNumber": 42,
  "ShimSetting": [4146, -7686, -7320, 721, -33, -135, -83, 61],
  "SliceThickness": 2.5,
  "SliceTiming": [0.735, 0, 0.49, 0.0825, 0.5725, 0.1625, 0.6525, 0.3275, 0.8175, 0.4075, 0.8975, 0.245, 0.735, 0, 0.49, 0.0825, 0.5725, 0.1625, 0.6525, 0.3275, 0.8175, 0.4075, 0.8975, 0.245, 0.735, 0, 0.49, 0.0825, 0.5725, 0.1625, 0.6525, 0.3275, 0.8175, 0.4075, 0.8975, 0.245, 0.735, 0, 0.49, 0.0825, 0.5725, 0.1625, 0.6525, 0.3275, 0.8175, 0.4075, 0.8975, 0.245],
  "SoftwareVersions": "syngo_MR_E11",
  "SpacingBetweenSlices": 2.5,
  "StationName": "AWP66112",
  "TotalReadoutTime": 0.0522511,
  "TxRefAmp": 234.056,
  "dcmmeta_affine": [
    [-2.4945108890533447, -0.07272811979055405, 0.1487501561641693, 123.3690414428711],
    [-0.09420626610517502, 2.4703750610351562, -0.37198492884635925, -100.51276397705078],
    [0.13616596162319183, 0.3767734467983246, 2.467691421508789, -94.41930389404297],
    [0.0, 0.0, 0.0, 1.0]
],
  "dcmmeta_reorient_transform": [
    [0.0, -1.0, 0.0, 95.0],
    [1.0, 0.0, 0.0, 0.0],
    [0.0, 0.0, 1.0, 0.0],
    [0.0, 0.0, 0.0, 1.0]
],
  "dcmmeta_shape": [96, 96, 48, 288],
  "dcmmeta_slice_dim": 2,
  "dcmmeta_version": 0.6,
  "global": {
    "const": {
      "AccessionNumber": "A001340",
      "AcquisitionMatrix": [96, 0, 0, 96],
      "AngioFlag": "N",
      "BitsAllocated": 16,
      "BitsStored": 12,
      "BodyPartExamined": "BRAIN",
      "Columns": 672,
      "EchoNumbers": 1,
      "EchoTime": 33.0,
      "EchoTrainLength": 96,
      "FlipAngle": 59.0,
      "HighBit": 11,
      "ImageOrientationPatient": [0.99780431020281, 0.03768250512379, 0.05446638732555, -0.0290912465089, 0.98814997946375, -0.1507093808041],
      "ImagePositionPatient": [-813.93327365853, -872.77224409241, 10.669126728986],
      "ImageType": [
        "ORIGINAL",
        "PRIMARY",
        "FMRI",
        "NONE",
        "ND",
        "NORM",
        "MOSAIC"
],
      "ImagedNucleus": "1H",
      "ImagingFrequency": 123.252303,
      "InPlanePhaseEncodingDirection": "COL",
      "MRAcquisitionType": "2D",
      "MagneticFieldStrength": 3.0,
      "Manufacturer": "SIEMENS",
      "ManufacturerModelName": "Prisma",
      "Modality": "MR",
      "NumberOfAverages": 1.0,
      "NumberOfPhaseEncodingSteps": 96,
      "PercentPhaseFieldOfView": 100.0,
      "PercentSampling": 100.0,
      "PerformedProcedureStepStartTime": "105554.137000",
      "PhotometricInterpretation": "MONOCHROME2",
      "PixelBandwidth": 2365.0,
      "PixelRepresentation": 0,
      "PixelSpacing": [2.5, 2.5],
      "PositionReferenceIndicator": "",
      "ProtocolName": "func_run-06_task-visualmemory",
      "RepetitionTime": 1000.0,
      "Rows": 672,
      "SAR": 0.05060948682152,
      "SamplesPerPixel": 1,
      "ScanOptions": "FS",
      "ScanningSequence": "EP",
      "SequenceName": "*epfid2d1_96",
      "SequenceVariant": "SK",
      "SeriesDescription": "func_run-06_task-visualmemory",
      "SeriesNumber": 42,
      "SeriesTime": "113303.131000",
      "SliceLocation": -70.902922538338,
      "SliceThickness": 2.5,
      "SmallestImagePixelValue": 0,
      "SoftwareVersions": "syngo MR E11",
      "SpacingBetweenSlices": 2.4999999527747,
      "SpecificCharacterSet": "ISO_IR 100",
      "StudyID": "3",
      "StudyTime": "105554.052000",
      "TransmitCoilName": "Body",
      "VariableFlipAngleFlag": "N",
      "WindowCenterWidthExplanation": "Algo1",
      "dBdt": 0.0},
    "slices": {}
  },
  "time": {
    "samples": {
      "AcquisitionNumber": [1, 2, 3, 4, 5, 6, 7, 8, 9, 10, 11, 12, 13, 14, 15, 16, 17, 18, 19, 20, 21, 22, 23, 24, 25, 26, 27, 28, 29, 30, 31, 32, 33, 34, 35, 36, 37, 38, 39, 40, 41, 42, 43, 44, 45, 46, 47, 48, 49, 50, 51, 52, 53, 54, 55, 56, 57, 58, 59, 60, 61, 62, 63, 64, 65, 66, 67, 68, 69, 70, 71, 72, 73, 74, 75, 76, 77, 78, 79, 80, 81, 82, 83, 84, 85, 86, 87, 88, 89, 90, 91, 92, 93, 94, 95, 96, 97, 98, 99, 100, 101, 102, 103, 104, 105, 106, 107, 108, 109, 110, 111, 112, 113, 114, 115, 116, 117, 118, 119, 120, 121, 122, 123, 124, 125, 126, 127, 128, 129, 130, 131, 132, 133, 134, 135, 136, 137, 138, 139, 140, 141, 142, 143, 144, 145, 146, 147, 148, 149, 150, 151, 152, 153, 154, 155, 156, 157, 158, 159, 160, 161, 162, 163, 164, 165, 166, 167, 168, 169, 170, 171, 172, 173, 174, 175, 176, 177, 178, 179, 180, 181, 182, 183, 184, 185, 186, 187, 188, 189, 190, 191, 192, 193, 194, 195, 196, 197, 198, 199, 200, 201, 202, 203, 204, 205, 206, 207, 208, 209, 210, 211, 212, 213, 214, 215, 216, 217, 218, 219, 220, 221, 222, 223, 224, 225, 226, 227, 228, 229, 230, 231, 232, 233, 234, 235, 236, 237, 238, 239, 240, 241, 242, 243, 244, 245, 246, 247, 248, 249, 250, 251, 252, 253, 254, 255, 256, 257, 258, 259, 260, 261, 262, 263, 264, 265, 266, 267, 268, 269, 270, 271, 272, 273, 274, 275, 276, 277, 278, 279, 280, 281, 282, 283, 284, 285, 286, 287, 288],
      "AcquisitionTime": ["113301.840000", "113302.840000", "113303.840000", "113304.840000", "113305.840000", "113306.840000", "113307.840000", "113308.840000", "113309.840000", "113310.840000", "113311.840000", "113312.840000", "113313.840000", "113314.840000", "113315.840000", "113316.840000", "113317.840000", "113318.840000", "113319.840000", "113320.840000", "113321.840000", "113322.840000", "113323.840000", "113324.840000", "113325.840000", "113326.840000", "113327.840000", "113328.840000", "113329.840000", "113330.840000", "113331.840000", "113332.840000", "113333.840000", "113334.840000", "113335.840000", "113336.840000", "113337.840000", "113338.840000", "113339.840000", "113340.840000", "113341.840000", "113342.840000", "113343.840000", "113344.840000", "113345.840000", "113346.840000", "113347.840000", "113348.840000", "113349.840000", "113350.840000", "113351.840000", "113352.840000", "113353.840000", "113354.840000", "113355.840000", "113356.840000", "113357.840000", "113358.840000", "113359.840000", "113400.840000", "113401.840000", "113402.840000", "113403.840000", "113404.840000", "113405.840000", "113406.840000", "113407.840000", "113408.840000", "113409.840000", "113410.840000", "113411.840000", "113412.840000", "113413.840000", "113414.840000", "113415.840000", "113416.840000", "113417.840000", "113418.840000", "113419.840000", "113420.840000", "113421.840000", "113422.840000", "113423.840000", "113424.840000", "113425.840000", "113426.840000", "113427.840000", "113428.840000", "113429.840000", "113430.840000", "113431.840000", "113432.840000", "113433.840000", "113434.840000", "113435.840000", "113436.840000", "113437.840000", "113438.840000", "113439.840000", "113440.840000", "113441.840000", "113442.840000", "113443.840000", "113444.840000", "113445.840000", "113446.840000", "113447.840000", "113448.840000", "113449.840000", "113450.840000", "113451.840000", "113452.840000", "113453.840000", "113454.840000", "113455.840000", "113456.840000", "113457.840000", "113458.840000", "113459.840000", "113500.840000", "113501.840000", "113502.840000", "113503.840000", "113504.840000", "113505.840000", "113506.840000", "113507.840000", "113508.840000", "113509.840000", "113510.840000", "113511.840000", "113512.840000", "113513.840000", "113514.840000", "113515.840000", "113516.840000", "113517.840000", "113518.840000", "113519.840000", "113520.840000", "113521.840000", "113522.840000", "113523.840000", "113524.840000", "113525.840000", "113526.840000", "113527.840000", "113528.840000", "113529.840000", "113530.840000", "113531.840000", "113532.840000", "113533.840000", "113534.840000", "113535.840000", "113536.840000", "113537.840000", "113538.840000", "113539.840000", "113540.840000", "113541.840000", "113542.840000", "113543.840000", "113544.840000", "113545.840000", "113546.840000", "113547.840000", "113548.840000", "113549.840000", "113550.840000", "113551.840000", "113552.840000", "113553.840000", "113554.840000", "113555.840000", "113556.840000", "113557.840000", "113558.840000", "113559.840000", "113600.840000", "113601.840000", "113602.840000", "113603.840000", "113604.840000", "113605.840000", "113606.840000", "113607.840000", "113608.840000", "113609.840000", "113610.840000", "113611.840000", "113612.840000", "113613.840000", "113614.840000", "113615.840000", "113616.840000", "113617.840000", "113618.840000", "113619.840000", "113620.840000", "113621.840000", "113622.840000", "113623.840000", "113624.840000", "113625.840000", "113626.840000", "113627.840000", "113628.840000", "113629.840000", "113630.840000", "113631.840000", "113632.840000", "113633.840000", "113634.840000", "113635.840000", "113636.840000", "113637.840000", "113638.840000", "113639.840000", "113640.840000", "113641.840000", "113642.840000", "113643.840000", "113644.840000", "113645.840000", "113646.840000", "113647.840000", "113648.840000", "113649.840000", "113650.840000", "113651.840000", "113652.840000", "113653.840000", "113654.840000", "113655.840000", "113656.840000", "113657.840000", "113658.840000", "113659.840000", "113700.840000", "113701.840000", "113702.840000", "113703.840000", "113704.840000", "113705.840000", "113706.840000", "113707.840000", "113708.840000", "113709.840000", "113710.840000", "113711.840000", "113712.840000", "113713.840000", "113714.840000", "113715.840000", "113716.840000", "113717.840000", "113718.840000", "113719.840000", "113720.840000", "113721.840000", "113722.840000", "113723.840000", "113724.840000", "113725.840000", "113726.840000", "113727.840000", "113728.840000", "113729.840000", "113730.840000", "113731.840000", "113732.840000", "113733.840000", "113734.840000", "113735.840000", "113736.840000", "113737.840000", "113738.840000", "113739.840000", "113740.840000", "113741.840000", "113742.840000", "113743.840000", "113744.840000", "113745.840000", "113746.840000", "113747.840000", "113748.840000"],
      "ContentTime": ["113303.135000", "113303.943000", "113304.966000", "113305.966000", "113306.974000", "113307.997000", "113308.976000", "113309.999000", "113310.992000", "113311.975000", "113312.961000", "113313.966000", "113314.955000", "113315.967000", "113316.972000", "113317.981000", "113318.961000", "113320.003000", "113320.982000", "113321.963000", "113322.964000", "113323.959000", "113324.974000", "113325.958000", "113326.962000", "113327.956000", "113328.966000", "113330.007000", "113330.981000", "113331.975000", "113332.971000", "113333.960000", "113334.965000", "113336.020000", "113336.959000", "113337.983000", "113338.943000", "113339.969000", "113341.022000", "113341.977000", "113342.980000", "113343.960000", "113344.955000", "113345.967000", "113346.946000", "113347.982000", "113348.955000", "113349.959000", "113351.025000", "113351.970000", "113352.963000", "113353.987000", "113355.008000", "113355.961000", "113356.958000", "113357.996000", "113358.967000", "113400.000000", "113400.971000", "113401.965000", "113402.964000", "113403.977000", "113404.964000", "113406.045000", "113406.997000", "113407.961000", "113408.973000", "113409.983000", "113410.967000", "113411.992000", "113412.941000", "113413.977000", "113414.964000", "113415.967000", "113416.957000", "113417.979000", "113418.962000", "113419.972000", "113420.963000", "113421.988000", "113422.956000", "113423.967000", "113424.974000", "113425.992000", "113426.956000", "113427.973000", "113428.963000", "113429.964000", "113430.965000", "113431.961000", "113432.970000", "113434.004000", "113435.003000", "113435.993000", "113436.960000", "113437.963000", "113438.989000", "113440.006000", "113441.027000", "113441.973000", "113442.996000", "113443.994000", "113445.011000", "113445.944000", "113447.009000", "113448.002000", "113448.976000", "113449.964000", "113450.963000", "113451.979000", "113452.978000", "113453.953000", "113454.985000", "113455.935000", "113456.962000", "113457.987000", "113458.989000", "113459.986000", "113500.974000", "113501.995000", "113502.985000", "113503.962000", "113504.994000", "113505.995000", "113506.976000", "113507.991000", "113508.961000", "113509.978000", "113510.972000", "113511.986000", "113513.035000", "113513.987000", "113514.977000", "113515.943000", "113516.979000", "113517.952000", "113518.963000", "113519.945000", "113520.969000", "113521.983000", "113522.981000", "113523.982000", "113524.960000", "113526.003000", "113526.974000", "113527.967000", "113528.973000", "113529.992000", "113531.000000", "113531.982000", "113532.974000", "113533.980000", "113534.954000", "113536.048000", "113536.994000", "113537.988000", "113538.985000", "113539.978000", "113540.965000", "113541.977000", "113542.965000", "113543.977000", "113544.991000", "113545.981000", "113546.980000", "113547.992000", "113548.991000", "113549.967000", "113550.980000", "113552.022000", "113553.000000", "113554.011000", "113554.996000", "113555.992000", "113556.972000", "113557.977000", "113558.953000", "113559.970000", "113600.998000", "113601.968000", "113602.972000", "113603.978000", "113605.004000", "113606.003000", "113606.973000", "113607.987000", "113608.970000", "113609.973000", "113610.973000", "113611.979000", "113612.966000", "113613.965000", "113615.002000", "113615.971000", "113616.967000", "113617.991000", "113618.962000", "113619.965000", "113620.963000", "113621.966000", "113622.968000", "113624.007000", "113624.985000", "113625.973000", "113626.984000", "113627.973000", "113628.971000", "113629.948000", "113630.986000", "113631.973000", "113632.955000", "113633.974000", "113634.954000", "113635.987000", "113636.979000", "113637.963000", "113639.009000", "113640.002000", "113640.967000", "113641.961000", "113642.979000", "113644.002000", "113645.001000", "113645.991000", "113646.996000", "113647.998000", "113648.993000", "113649.993000", "113650.968000", "113651.957000", "113652.971000", "113653.979000", "113655.004000", "113655.982000", "113656.982000", "113657.966000", "113658.977000", "113659.949000", "113700.962000", "113701.977000", "113702.955000", "113703.961000", "113704.976000", "113705.961000", "113706.997000", "113707.971000", "113708.974000", "113710.012000", "113710.977000", "113711.968000", "113713.013000", "113713.991000", "113714.982000", "113715.945000", "113717.013000", "113717.992000", "113718.948000", "113719.979000", "113721.015000", "113722.016000", "113722.998000", "113724.017000", "113724.938000", "113725.989000", "113726.959000", "113727.970000", "113729.026000", "113729.990000", "113730.969000", "113731.982000", "113732.974000", "113733.984000", "113734.998000", "113735.993000", "113736.974000", "113737.992000", "113738.972000", "113739.964000", "113740.971000", "113741.959000", "113742.983000", "113743.967000", "113744.990000", "113745.960000", "113746.961000", "113747.972000", "113748.959000", "113750.019000"],
      "InstanceCreationTime": ["113303.135000", "113303.943000", "113304.966000", "113305.966000", "113306.974000", "113307.997000", "113308.976000", "113309.999000", "113310.992000", "113311.975000", "113312.961000", "113313.966000", "113314.955000", "113315.967000", "113316.972000", "113317.981000", "113318.961000", "113320.003000", "113320.982000", "113321.963000", "113322.964000", "113323.959000", "113324.974000", "113325.958000", "113326.962000", "113327.956000", "113328.966000", "113330.007000", "113330.981000", "113331.975000", "113332.971000", "113333.960000", "113334.965000", "113336.020000", "113336.959000", "113337.983000", "113338.943000", "113339.969000", "113341.022000", "113341.977000", "113342.980000", "113343.960000", "113344.955000", "113345.967000", "113346.946000", "113347.982000", "113348.955000", "113349.959000", "113351.025000", "113351.970000", "113352.963000", "113353.987000", "113355.008000", "113355.961000", "113356.958000", "113357.996000", "113358.967000", "113400.000000", "113400.971000", "113401.965000", "113402.964000", "113403.977000", "113404.964000", "113406.045000", "113406.997000", "113407.961000", "113408.973000", "113409.983000", "113410.967000", "113411.992000", "113412.941000", "113413.977000", "113414.964000", "113415.967000", "113416.957000", "113417.979000", "113418.962000", "113419.972000", "113420.963000", "113421.988000", "113422.956000", "113423.967000", "113424.974000", "113425.992000", "113426.956000", "113427.973000", "113428.963000", "113429.964000", "113430.965000", "113431.961000", "113432.970000", "113434.004000", "113435.003000", "113435.993000", "113436.960000", "113437.963000", "113438.989000", "113440.006000", "113441.027000", "113441.973000", "113442.996000", "113443.994000", "113445.011000", "113445.944000", "113447.009000", "113448.002000", "113448.976000", "113449.964000", "113450.963000", "113451.979000", "113452.978000", "113453.953000", "113454.985000", "113455.935000", "113456.962000", "113457.987000", "113458.989000", "113459.986000", "113500.974000", "113501.995000", "113502.985000", "113503.962000", "113504.994000", "113505.995000", "113506.976000", "113507.991000", "113508.961000", "113509.978000", "113510.972000", "113511.986000", "113513.035000", "113513.987000", "113514.977000", "113515.943000", "113516.979000", "113517.952000", "113518.963000", "113519.945000", "113520.969000", "113521.983000", "113522.981000", "113523.982000", "113524.960000", "113526.003000", "113526.974000", "113527.967000", "113528.973000", "113529.992000", "113531.000000", "113531.982000", "113532.974000", "113533.980000", "113534.954000", "113536.048000", "113536.994000", "113537.988000", "113538.985000", "113539.978000", "113540.965000", "113541.977000", "113542.965000", "113543.977000", "113544.991000", "113545.981000", "113546.980000", "113547.992000", "113548.991000", "113549.967000", "113550.980000", "113552.022000", "113553.000000", "113554.011000", "113554.996000", "113555.992000", "113556.972000", "113557.977000", "113558.953000", "113559.970000", "113600.998000", "113601.968000", "113602.972000", "113603.978000", "113605.004000", "113606.003000", "113606.973000", "113607.987000", "113608.970000", "113609.973000", "113610.973000", "113611.979000", "113612.966000", "113613.965000", "113615.002000", "113615.971000", "113616.967000", "113617.991000", "113618.962000", "113619.965000", "113620.963000", "113621.966000", "113622.968000", "113624.007000", "113624.985000", "113625.973000", "113626.984000", "113627.973000", "113628.971000", "113629.948000", "113630.986000", "113631.973000", "113632.955000", "113633.974000", "113634.954000", "113635.987000", "113636.979000", "113637.963000", "113639.009000", "113640.002000", "113640.967000", "113641.961000", "113642.979000", "113644.002000", "113645.001000", "113645.991000", "113646.996000", "113647.998000", "113648.993000", "113649.993000", "113650.968000", "113651.957000", "113652.971000", "113653.979000", "113655.004000", "113655.982000", "113656.982000", "113657.966000", "113658.977000", "113659.949000", "113700.962000", "113701.977000", "113702.955000", "113703.961000", "113704.976000", "113705.961000", "113706.997000", "113707.971000", "113708.974000", "113710.012000", "113710.977000", "113711.968000", "113713.013000", "113713.991000", "113714.982000", "113715.945000", "113717.013000", "113717.992000", "113718.948000", "113719.979000", "113721.015000", "113722.016000", "113722.998000", "113724.017000", "113724.938000", "113725.989000", "113726.959000", "113727.970000", "113729.026000", "113729.990000", "113730.969000", "113731.982000", "113732.974000", "113733.984000", "113734.998000", "113735.993000", "113736.974000", "113737.992000", "113738.972000", "113739.964000", "113740.971000", "113741.959000", "113742.983000", "113743.967000", "113744.990000", "113745.960000", "113746.961000", "113747.972000", "113748.959000", "113750.019000"],
      "InstanceNumber": [1, 2, 3, 4, 5, 6, 7, 8, 9, 10, 11, 12, 13, 14, 15, 16, 17, 18, 19, 20, 21, 22, 23, 24, 25, 26, 27, 28, 29, 30, 31, 32, 33, 34, 35, 36, 37, 38, 39, 40, 41, 42, 43, 44, 45, 46, 47, 48, 49, 50, 51, 52, 53, 54, 55, 56, 57, 58, 59, 60, 61, 62, 63, 64, 65, 66, 67, 68, 69, 70, 71, 72, 73, 74, 75, 76, 77, 78, 79, 80, 81, 82, 83, 84, 85, 86, 87, 88, 89, 90, 91, 92, 93, 94, 95, 96, 97, 98, 99, 100, 101, 102, 103, 104, 105, 106, 107, 108, 109, 110, 111, 112, 113, 114, 115, 116, 117, 118, 119, 120, 121, 122, 123, 124, 125, 126, 127, 128, 129, 130, 131, 132, 133, 134, 135, 136, 137, 138, 139, 140, 141, 142, 143, 144, 145, 146, 147, 148, 149, 150, 151, 152, 153, 154, 155, 156, 157, 158, 159, 160, 161, 162, 163, 164, 165, 166, 167, 168, 169, 170, 171, 172, 173, 174, 175, 176, 177, 178, 179, 180, 181, 182, 183, 184, 185, 186, 187, 188, 189, 190, 191, 192, 193, 194, 195, 196, 197, 198, 199, 200, 201, 202, 203, 204, 205, 206, 207, 208, 209, 210, 211, 212, 213, 214, 215, 216, 217, 218, 219, 220, 221, 222, 223, 224, 225, 226, 227, 228, 229, 230, 231, 232, 233, 234, 235, 236, 237, 238, 239, 240, 241, 242, 243, 244, 245, 246, 247, 248, 249, 250, 251, 252, 253, 254, 255, 256, 257, 258, 259, 260, 261, 262, 263, 264, 265, 266, 267, 268, 269, 270, 271, 272, 273, 274, 275, 276, 277, 278, 279, 280, 281, 282, 283, 284, 285, 286, 287, 288],
      "LargestImagePixelValue": [1279, 701, 851, 1123, 678, 869, 1230, 680, 767, 1331, 773, 677, 998, 678, 681, 837, 692, 824, 716, 866, 880, 982, 699, 726, 988, 719, 701, 841, 1193, 673, 699, 1172, 776, 677, 972, 806, 654, 837, 1051, 672, 829, 1094, 733, 781, 809, 890, 699, 785, 1079, 786, 708, 883, 1231, 677, 662, 1084, 740, 664, 979, 941, 666, 879, 1174, 801, 719, 770, 687, 696, 723, 1040, 757, 777, 982, 663, 747, 659, 694, 1272, 805, 802, 938, 670, 720, 1032, 657, 761, 1006, 1040, 832, 703, 1003, 817, 668, 858, 788, 670, 864, 1360, 773, 690, 902, 917, 661, 798, 1130, 994, 780, 706, 812, 1080, 673, 686, 959, 1222, 742, 735, 1045, 1011, 668, 682, 763, 953, 773, 701, 860, 1227, 692, 667, 993, 820, 665, 842, 1104, 650, 686, 1123, 719, 654, 900, 911, 652, 778, 976, 1025, 923, 709, 783, 1203, 689, 663, 1059, 741, 659, 986, 741, 834, 1114, 694, 1050, 1134, 1045, 751, 692, 1030, 736, 650, 822, 1167, 659, 737, 1199, 784, 669, 860, 1032, 932, 765, 691, 1013, 896, 682, 730, 1067, 690, 645, 816, 1275, 760, 722, 907, 756, 664, 701, 735, 1034, 1149, 740, 673, 977, 1160, 664, 715, 1090, 725, 798, 843, 1150, 804, 713, 995, 995, 682, 851, 1247, 703, 724, 952, 1021, 730, 715, 669, 793, 654, 669, 655, 975, 1196, 706, 648, 1015, 679, 878, 883, 786, 835, 1020, 1046, 666, 680, 1135, 678, 661, 856, 1228, 717, 732, 898, 983, 721, 715, 937, 1050, 731, 739, 1155, 942, 662, 646, 659, 1080, 722, 786, 1316, 785, 700, 1112, 680, 689, 976, 654, 662, 891, 919, 704, 691, 696, 970, 711, 684, 882, 923, 692, 1275, 715, 815, 1212, 748, 706],
      "WindowCenter": [339.0, 334.0, 335.0, 336.0, 332.0, 334.0, 336.0, 332.0, 333.0, 336.0, 333.0, 332.0, 334.0, 332.0, 332.0, 334.0, 332.0, 334.0, 333.0, 334.0, 334.0, 335.0, 332.0, 332.0, 335.0, 333.0, 333.0, 334.0, 336.0, 332.0, 333.0, 336.0, 333.0, 332.0, 335.0, 333.0, 332.0, 334.0, 335.0, 332.0, 334.0, 336.0, 333.0, 334.0, 333.0, 334.0, 332.0, 333.0, 336.0, 334.0, 332.0, 333.0, 336.0, 332.0, 332.0, 335.0, 332.0, 332.0, 335.0, 334.0, 332.0, 333.0, 335.0, 333.0, 332.0, 333.0, 332.0, 332.0, 333.0, 336.0, 334.0, 333.0, 335.0, 332.0, 333.0, 332.0, 333.0, 337.0, 333.0, 333.0, 334.0, 332.0, 332.0, 335.0, 332.0, 333.0, 335.0, 335.0, 333.0, 332.0, 335.0, 333.0, 332.0, 334.0, 333.0, 333.0, 334.0, 337.0, 333.0, 332.0, 334.0, 335.0, 332.0, 334.0, 336.0, 335.0, 333.0, 332.0, 333.0, 335.0, 332.0, 332.0, 335.0, 337.0, 333.0, 333.0, 335.0, 335.0, 332.0, 332.0, 333.0, 335.0, 333.0, 332.0, 334.0, 337.0, 332.0, 332.0, 335.0, 333.0, 332.0, 334.0, 336.0, 332.0, 333.0, 336.0, 333.0, 332.0, 334.0, 335.0, 332.0, 334.0, 335.0, 336.0, 335.0, 332.0, 334.0, 336.0, 333.0, 332.0, 336.0, 334.0, 333.0, 335.0, 333.0, 334.0, 336.0, 333.0, 335.0, 335.0, 334.0, 332.0, 332.0, 335.0, 332.0, 332.0, 333.0, 335.0, 332.0, 333.0, 336.0, 333.0, 332.0, 333.0, 335.0, 335.0, 332.0, 332.0, 334.0, 334.0, 332.0, 332.0, 335.0, 332.0, 332.0, 334.0, 337.0, 333.0, 333.0, 334.0, 333.0, 332.0, 333.0, 334.0, 336.0, 337.0, 333.0, 332.0, 335.0, 336.0, 332.0, 333.0, 336.0, 333.0, 334.0, 334.0, 336.0, 334.0, 332.0, 335.0, 335.0, 331.0, 333.0, 336.0, 332.0, 332.0, 334.0, 334.0, 332.0, 332.0, 331.0, 334.0, 332.0, 333.0, 333.0, 336.0, 337.0, 333.0, 332.0, 335.0, 332.0, 335.0, 334.0, 333.0, 334.0, 335.0, 335.0, 332.0, 332.0, 336.0, 332.0, 332.0, 334.0, 337.0, 333.0, 333.0, 334.0, 335.0, 333.0, 332.0, 335.0, 336.0, 333.0, 333.0, 336.0, 335.0, 332.0, 332.0, 333.0, 337.0, 333.0, 334.0, 337.0, 333.0, 332.0, 336.0, 332.0, 332.0, 335.0, 332.0, 332.0, 334.0, 335.0, 333.0, 333.0, 333.0, 335.0, 333.0, 332.0, 335.0, 335.0, 333.0, 337.0, 333.0, 334.0, 337.0, 332.0, 332.0],
      "WindowWidth": [729.0, 721.0, 722.0, 723.0, 718.0, 721.0, 724.0, 718.0, 718.0, 724.0, 718.0, 717.0, 720.0, 717.0, 717.0, 720.0, 718.0, 721.0, 719.0, 720.0, 720.0, 721.0, 718.0, 718.0, 722.0, 719.0, 719.0, 720.0, 724.0, 718.0, 719.0, 723.0, 719.0, 718.0, 721.0, 719.0, 718.0, 720.0, 722.0, 718.0, 721.0, 723.0, 719.0, 720.0, 719.0, 720.0, 718.0, 719.0, 723.0, 720.0, 717.0, 719.0, 722.0, 717.0, 717.0, 722.0, 718.0, 717.0, 721.0, 720.0, 717.0, 719.0, 721.0, 718.0, 717.0, 718.0, 718.0, 718.0, 719.0, 723.0, 720.0, 719.0, 721.0, 717.0, 719.0, 718.0, 719.0, 725.0, 719.0, 719.0, 720.0, 718.0, 718.0, 722.0, 718.0, 718.0, 722.0, 722.0, 719.0, 718.0, 721.0, 719.0, 717.0, 720.0, 719.0, 718.0, 721.0, 725.0, 719.0, 717.0, 720.0, 721.0, 718.0, 720.0, 723.0, 722.0, 719.0, 718.0, 719.0, 722.0, 718.0, 718.0, 722.0, 724.0, 719.0, 719.0, 721.0, 721.0, 717.0, 718.0, 719.0, 722.0, 719.0, 718.0, 720.0, 724.0, 718.0, 717.0, 722.0, 719.0, 718.0, 720.0, 723.0, 718.0, 718.0, 723.0, 719.0, 718.0, 720.0, 721.0, 718.0, 720.0, 722.0, 723.0, 721.0, 718.0, 720.0, 724.0, 718.0, 718.0, 723.0, 720.0, 718.0, 722.0, 719.0, 721.0, 723.0, 719.0, 722.0, 722.0, 720.0, 717.0, 717.0, 721.0, 717.0, 717.0, 719.0, 722.0, 717.0, 719.0, 723.0, 718.0, 717.0, 719.0, 721.0, 721.0, 718.0, 717.0, 720.0, 720.0, 716.0, 718.0, 722.0, 718.0, 717.0, 721.0, 724.0, 719.0, 718.0, 720.0, 718.0, 718.0, 719.0, 720.0, 723.0, 724.0, 719.0, 718.0, 722.0, 723.0, 718.0, 719.0, 723.0, 719.0, 720.0, 720.0, 723.0, 719.0, 718.0, 721.0, 721.0, 716.0, 719.0, 722.0, 717.0, 717.0, 719.0, 720.0, 717.0, 717.0, 716.0, 719.0, 718.0, 718.0, 719.0, 724.0, 724.0, 719.0, 718.0, 722.0, 718.0, 722.0, 720.0, 719.0, 720.0, 721.0, 722.0, 717.0, 718.0, 723.0, 718.0, 718.0, 721.0, 724.0, 719.0, 719.0, 720.0, 721.0, 719.0, 718.0, 721.0, 723.0, 719.0, 719.0, 723.0, 721.0, 717.0, 718.0, 720.0, 724.0, 720.0, 720.0, 724.0, 718.0, 718.0, 723.0, 718.0, 718.0, 721.0, 718.0, 718.0, 720.0, 721.0, 719.0, 719.0, 719.0, 722.0, 719.0, 718.0, 721.0, 721.0, 719.0, 725.0, 719.0, 720.0, 724.0, 718.0, 718.0]
    },
    "slices": {}
  }
}