{
  "AcquisitionMatrixPE": 96,
  "AcquisitionNumber": 1,
  "AcquisitionTime": "11:38:23.147500",
  "BandwidthPerPixelPhaseEncode": 18.939,
  "BaseResolution": 96,
  "BodyPartExamined": "BRAIN",
  "ConsistencyInfo": "N4_VE11C_LATEST_20160120",
  "ConversionSoftware": "dcm2niix",
  "ConversionSoftwareVersion": "v1.0.20171215 (OpenJPEG build) GCC6.3.0",
  "DerivedVendorReportedEchoSpacing": 0.000550011,
  "DeviceSerialNumber": "66112",
  "DwellTime": 2.2e-06,
  "EchoTime": 0.033,
  "EchoTrainLength": 96,
  "EffectiveEchoSpacing": 0.000550011,
  "FlipAngle": 59,
  "ImageOrientationPatientDICOM": [0.997804, 0.0376825, 0.0544664, -0.0290912, 0.98815, -0.150709],
  "ImageType": [
    "ORIGINAL",
    "PRIMARY",
    "FMRI",
    "NONE",
    "ND",
    "NORM",
    "MOSAIC"
],
  "InPlanePhaseEncodingDirectionDICOM": "COL",
  "InstitutionAddress": "Maynard_3_Hanover_NH_US_03755",
  "InstitutionName": "Dartmouth_College_-_PBS",
  "InstitutionalDepartmentName": "Department",
  "MRAcquisitionType": "2D",
  "MagneticFieldStrength": 3,
  "Manufacturer": "Siemens",
  "ManufacturersModelName": "Prisma",
  "Modality": "MR",
  "MultibandAccelerationFactor": 4,
  "PartialFourier": 1,
  "PatientPosition": "HFS",
  "PercentPhaseFOV": 100,
  "PhaseEncodingDirection": "j-",
  "PhaseEncodingSteps": 96,
  "PhaseResolution": 1,
  "PixelBandwidth": 2365,
  "ProcedureStepDescription": "Gobbini_Matteo_1038_hyperface",
  "ProtocolName": "func_run-07_task-visualmemory",
  "PulseSequenceDetails": "%SiemensSeq%_ep2d_bold",
  "ReceiveCoilActiveElements": "HEA;HEP",
  "ReceiveCoilName": "Head_32",
  "ReconMatrixPE": 96,
  "RepetitionTime": 1,
  "SAR": 0.0506095,
  "ScanOptions": "FS",
  "ScanningSequence": "EP",
  "SequenceName": "_epfid2d1_96",
  "SequenceVariant": "SK",
  "SeriesDescription": "func_run-07_task-visualmemory",
  "SeriesNumber": 49,
  "ShimSetting": [4146, -7686, -7320, 721, -33, -135, -83, 61],
  "SliceThickness": 2.5,
  "SliceTiming": [0.735, 0, 0.49, 0.0825, 0.5725, 0.1625, 0.6525, 0.3275, 0.8175, 0.4075, 0.8975, 0.245, 0.735, 0, 0.49, 0.0825, 0.5725, 0.1625, 0.6525, 0.3275, 0.8175, 0.4075, 0.8975, 0.245, 0.735, 0, 0.49, 0.0825, 0.5725, 0.1625, 0.6525, 0.3275, 0.8175, 0.4075, 0.8975, 0.245, 0.735, 0, 0.49, 0.0825, 0.5725, 0.1625, 0.6525, 0.3275, 0.8175, 0.4075, 0.8975, 0.245],
  "SoftwareVersions": "syngo_MR_E11",
  "SpacingBetweenSlices": 2.5,
  "StationName": "AWP66112",
  "TotalReadoutTime": 0.0522511,
  "TxRefAmp": 234.056,
  "dcmmeta_affine": [
    [-2.4945108890533447, -0.07272811979055405, 0.1487501561641693, 123.3690414428711],
    [-0.09420626610517502, 2.4703750610351562, -0.37198492884635925, -100.51276397705078],
    [0.13616596162319183, 0.3767734467983246, 2.467691421508789, -94.41930389404297],
    [0.0, 0.0, 0.0, 1.0]
],
  "dcmmeta_reorient_transform": [
    [0.0, -1.0, 0.0, 95.0],
    [1.0, 0.0, 0.0, 0.0],
    [0.0, 0.0, 1.0, 0.0],
    [0.0, 0.0, 0.0, 1.0]
],
  "dcmmeta_shape": [96, 96, 48, 288],
  "dcmmeta_slice_dim": 2,
  "dcmmeta_version": 0.6,
  "global": {
    "const": {
      "AccessionNumber": "A001340",
      "AcquisitionMatrix": [96, 0, 0, 96],
      "AngioFlag": "N",
      "BitsAllocated": 16,
      "BitsStored": 12,
      "BodyPartExamined": "BRAIN",
      "Columns": 672,
      "EchoNumbers": 1,
      "EchoTime": 33.0,
      "EchoTrainLength": 96,
      "FlipAngle": 59.0,
      "HighBit": 11,
      "ImageOrientationPatient": [0.99780431020281, 0.03768250512379, 0.05446638732555, -0.0290912465089, 0.98814997946375, -0.1507093808041],
      "ImagePositionPatient": [-813.93327365853, -872.77224409241, 10.669126728986],
      "ImageType": [
        "ORIGINAL",
        "PRIMARY",
        "FMRI",
        "NONE",
        "ND",
        "NORM",
        "MOSAIC"
],
      "ImagedNucleus": "1H",
      "ImagingFrequency": 123.252305,
      "InPlanePhaseEncodingDirection": "COL",
      "MRAcquisitionType": "2D",
      "MagneticFieldStrength": 3.0,
      "Manufacturer": "SIEMENS",
      "ManufacturerModelName": "Prisma",
      "Modality": "MR",
      "NumberOfAverages": 1.0,
      "NumberOfPhaseEncodingSteps": 96,
      "PercentPhaseFieldOfView": 100.0,
      "PercentSampling": 100.0,
      "PerformedProcedureStepStartTime": "105554.137000",
      "PhotometricInterpretation": "MONOCHROME2",
      "PixelBandwidth": 2365.0,
      "PixelRepresentation": 0,
      "PixelSpacing": [2.5, 2.5],
      "PositionReferenceIndicator": "",
      "ProtocolName": "func_run-07_task-visualmemory",
      "RepetitionTime": 1000.0,
      "Rows": 672,
      "SAR": 0.05060948682152,
      "SamplesPerPixel": 1,
      "ScanOptions": "FS",
      "ScanningSequence": "EP",
      "SequenceName": "*epfid2d1_96",
      "SequenceVariant": "SK",
      "SeriesDescription": "func_run-07_task-visualmemory",
      "SeriesNumber": 49,
      "SeriesTime": "113824.621000",
      "SliceLocation": -70.902922538338,
      "SliceThickness": 2.5,
      "SmallestImagePixelValue": 0,
      "SoftwareVersions": "syngo MR E11",
      "SpacingBetweenSlices": 2.4999999527747,
      "SpecificCharacterSet": "ISO_IR 100",
      "StudyID": "3",
      "StudyTime": "105554.052000",
      "TransmitCoilName": "Body",
      "VariableFlipAngleFlag": "N",
      "WindowCenterWidthExplanation": "Algo1",
      "dBdt": 0.0},
    "slices": {}
  },
  "time": {
    "samples": {
      "AcquisitionNumber": [1, 2, 3, 4, 5, 6, 7, 8, 9, 10, 11, 12, 13, 14, 15, 16, 17, 18, 19, 20, 21, 22, 23, 24, 25, 26, 27, 28, 29, 30, 31, 32, 33, 34, 35, 36, 37, 38, 39, 40, 41, 42, 43, 44, 45, 46, 47, 48, 49, 50, 51, 52, 53, 54, 55, 56, 57, 58, 59, 60, 61, 62, 63, 64, 65, 66, 67, 68, 69, 70, 71, 72, 73, 74, 75, 76, 77, 78, 79, 80, 81, 82, 83, 84, 85, 86, 87, 88, 89, 90, 91, 92, 93, 94, 95, 96, 97, 98, 99, 100, 101, 102, 103, 104, 105, 106, 107, 108, 109, 110, 111, 112, 113, 114, 115, 116, 117, 118, 119, 120, 121, 122, 123, 124, 125, 126, 127, 128, 129, 130, 131, 132, 133, 134, 135, 136, 137, 138, 139, 140, 141, 142, 143, 144, 145, 146, 147, 148, 149, 150, 151, 152, 153, 154, 155, 156, 157, 158, 159, 160, 161, 162, 163, 164, 165, 166, 167, 168, 169, 170, 171, 172, 173, 174, 175, 176, 177, 178, 179, 180, 181, 182, 183, 184, 185, 186, 187, 188, 189, 190, 191, 192, 193, 194, 195, 196, 197, 198, 199, 200, 201, 202, 203, 204, 205, 206, 207, 208, 209, 210, 211, 212, 213, 214, 215, 216, 217, 218, 219, 220, 221, 222, 223, 224, 225, 226, 227, 228, 229, 230, 231, 232, 233, 234, 235, 236, 237, 238, 239, 240, 241, 242, 243, 244, 245, 246, 247, 248, 249, 250, 251, 252, 253, 254, 255, 256, 257, 258, 259, 260, 261, 262, 263, 264, 265, 266, 267, 268, 269, 270, 271, 272, 273, 274, 275, 276, 277, 278, 279, 280, 281, 282, 283, 284, 285, 286, 287, 288],
      "AcquisitionTime": ["113823.147500", "113824.147500", "113825.147500", "113826.147500", "113827.147500", "113828.147500", "113829.147500", "113830.147500", "113831.147500", "113832.147500", "113833.147500", "113834.147500", "113835.147500", "113836.147500", "113837.147500", "113838.147500", "113839.147500", "113840.147500", "113841.147500", "113842.147500", "113843.147500", "113844.147500", "113845.147500", "113846.147500", "113847.147500", "113848.147500", "113849.147500", "113850.147500", "113851.147500", "113852.147500", "113853.147500", "113854.147500", "113855.147500", "113856.147500", "113857.147500", "113858.147500", "113859.147500", "113900.147500", "113901.147500", "113902.147500", "113903.147500", "113904.147500", "113905.147500", "113906.147500", "113907.147500", "113908.147500", "113909.147500", "113910.147500", "113911.147500", "113912.147500", "113913.147500", "113914.147500", "113915.147500", "113916.147500", "113917.147500", "113918.147500", "113919.147500", "113920.147500", "113921.147500", "113922.147500", "113923.147500", "113924.147500", "113925.147500", "113926.147500", "113927.147500", "113928.147500", "113929.147500", "113930.147500", "113931.147500", "113932.147500", "113933.147500", "113934.147500", "113935.147500", "113936.147500", "113937.147500", "113938.147500", "113939.147500", "113940.147500", "113941.147500", "113942.147500", "113943.147500", "113944.147500", "113945.147500", "113946.147500", "113947.147500", "113948.147500", "113949.147500", "113950.147500", "113951.147500", "113952.147500", "113953.147500", "113954.147500", "113955.147500", "113956.147500", "113957.147500", "113958.147500", "113959.147500", "114000.147500", "114001.147500", "114002.147500", "114003.147500", "114004.147500", "114005.147500", "114006.147500", "114007.147500", "114008.147500", "114009.147500", "114010.147500", "114011.147500", "114012.147500", "114013.147500", "114014.147500", "114015.147500", "114016.147500", "114017.147500", "114018.147500", "114019.147500", "114020.147500", "114021.147500", "114022.147500", "114023.147500", "114024.147500", "114025.147500", "114026.147500", "114027.147500", "114028.147500", "114029.147500", "114030.147500", "114031.147500", "114032.147500", "114033.147500", "114034.147500", "114035.147500", "114036.147500", "114037.147500", "114038.147500", "114039.147500", "114040.147500", "114041.147500", "114042.147500", "114043.147500", "114044.147500", "114045.147500", "114046.147500", "114047.147500", "114048.147500", "114049.147500", "114050.147500", "114051.147500", "114052.147500", "114053.147500", "114054.147500", "114055.147500", "114056.147500", "114057.147500", "114058.147500", "114059.147500", "114100.147500", "114101.147500", "114102.147500", "114103.147500", "114104.147500", "114105.147500", "114106.147500", "114107.147500", "114108.147500", "114109.147500", "114110.147500", "114111.147500", "114112.147500", "114113.147500", "114114.147500", "114115.147500", "114116.147500", "114117.147500", "114118.147500", "114119.147500", "114120.147500", "114121.147500", "114122.147500", "114123.147500", "114124.147500", "114125.147500", "114126.147500", "114127.147500", "114128.147500", "114129.147500", "114130.147500", "114131.147500", "114132.147500", "114133.147500", "114134.147500", "114135.147500", "114136.147500", "114137.147500", "114138.147500", "114139.147500", "114140.147500", "114141.147500", "114142.147500", "114143.147500", "114144.147500", "114145.147500", "114146.147500", "114147.147500", "114148.147500", "114149.147500", "114150.147500", "114151.147500", "114152.147500", "114153.147500", "114154.147500", "114155.147500", "114156.147500", "114157.147500", "114158.147500", "114159.147500", "114200.147500", "114201.147500", "114202.147500", "114203.147500", "114204.147500", "114205.147500", "114206.147500", "114207.147500", "114208.147500", "114209.147500", "114210.147500", "114211.147500", "114212.147500", "114213.147500", "114214.147500", "114215.147500", "114216.147500", "114217.147500", "114218.147500", "114219.147500", "114220.147500", "114221.147500", "114222.147500", "114223.147500", "114224.147500", "114225.147500", "114226.147500", "114227.147500", "114228.147500", "114229.147500", "114230.147500", "114231.147500", "114232.147500", "114233.147500", "114234.147500", "114235.147500", "114236.147500", "114237.147500", "114238.147500", "114239.147500", "114240.147500", "114241.147500", "114242.147500", "114243.147500", "114244.147500", "114245.147500", "114246.147500", "114247.147500", "114248.147500", "114249.147500", "114250.147500", "114251.147500", "114252.147500", "114253.147500", "114254.147500", "114255.147500", "114256.147500", "114257.147500", "114258.147500", "114259.147500", "114300.147500", "114301.147500", "114302.147500", "114303.147500", "114304.147500", "114305.147500", "114306.147500", "114307.147500", "114308.147500", "114309.147500", "114310.147500"],
      "ContentTime": ["113824.625000", "113825.432000", "113826.464000", "113827.452000", "113828.441000", "113829.448000", "113830.448000", "113831.425000", "113832.416000", "113833.433000", "113834.451000", "113835.417000", "113836.397000", "113837.421000", "113838.437000", "113839.440000", "113840.446000", "113841.431000", "113842.435000", "113843.452000", "113844.430000", "113845.441000", "113846.439000", "113847.446000", "113848.444000", "113849.426000", "113850.425000", "113851.449000", "113852.423000", "113853.465000", "113854.456000", "113855.428000", "113856.446000", "113857.432000", "113858.435000", "113859.435000", "113900.441000", "113901.539000", "113902.459000", "113903.418000", "113904.443000", "113905.478000", "113906.451000", "113907.436000", "113908.437000", "113909.453000", "113910.442000", "113911.456000", "113912.429000", "113913.448000", "113914.431000", "113915.456000", "113916.455000", "113917.422000", "113918.436000", "113919.449000", "113920.431000", "113921.449000", "113922.443000", "113923.439000", "113924.406000", "113925.441000", "113926.430000", "113927.439000", "113928.429000", "113929.438000", "113930.442000", "113931.451000", "113932.439000", "113933.464000", "113934.425000", "113935.457000", "113936.519000", "113937.456000", "113938.437000", "113939.454000", "113940.443000", "113941.441000", "113942.450000", "113943.451000", "113944.428000", "113945.432000", "113946.444000", "113947.431000", "113948.427000", "113949.435000", "113950.435000", "113951.434000", "113952.432000", "113953.469000", "113954.521000", "113955.421000", "113956.453000", "113957.441000", "113958.440000", "113959.426000", "114000.436000", "114001.444000", "114002.432000", "114003.462000", "114004.437000", "114005.450000", "114006.428000", "114007.452000", "114008.452000", "114009.475000", "114010.456000", "114011.448000", "114012.468000", "114013.434000", "114014.461000", "114015.448000", "114016.433000", "114017.450000", "114018.516000", "114019.440000", "114020.449000", "114021.461000", "114022.443000", "114023.441000", "114024.456000", "114025.441000", "114026.453000", "114027.436000", "114028.439000", "114029.467000", "114030.467000", "114031.460000", "114032.443000", "114033.412000", "114034.445000", "114035.440000", "114036.452000", "114037.437000", "114038.444000", "114039.433000", "114040.460000", "114041.486000", "114042.422000", "114043.462000", "114044.431000", "114045.439000", "114046.452000", "114047.456000", "114048.420000", "114049.445000", "114050.450000", "114051.440000", "114052.448000", "114053.450000", "114054.436000", "114055.467000", "114056.456000", "114057.444000", "114058.458000", "114059.445000", "114100.447000", "114101.459000", "114102.455000", "114103.455000", "114104.424000", "114105.449000", "114106.463000", "114107.469000", "114108.463000", "114109.461000", "114110.427000", "114111.460000", "114112.471000", "114113.452000", "114114.447000", "114115.450000", "114116.432000", "114117.446000", "114118.515000", "114119.449000", "114120.449000", "114121.439000", "114122.476000", "114123.435000", "114124.459000", "114125.463000", "114126.463000", "114127.445000", "114128.462000", "114129.445000", "114130.444000", "114131.442000", "114132.450000", "114133.440000", "114134.444000", "114135.441000", "114136.428000", "114137.430000", "114138.458000", "114139.429000", "114140.423000", "114141.446000", "114142.424000", "114143.453000", "114144.438000", "114145.449000", "114146.475000", "114147.441000", "114148.453000", "114149.475000", "114150.425000", "114151.453000", "114152.432000", "114153.439000", "114154.439000", "114155.445000", "114156.442000", "114157.465000", "114158.444000", "114159.438000", "114200.479000", "114201.444000", "114202.454000", "114203.467000", "114204.463000", "114205.470000", "114206.429000", "114207.459000", "114208.481000", "114209.445000", "114210.424000", "114211.442000", "114212.443000", "114213.493000", "114214.462000", "114215.448000", "114216.459000", "114217.464000", "114218.462000", "114219.443000", "114220.435000", "114221.454000", "114222.446000", "114223.459000", "114224.452000", "114225.431000", "114226.427000", "114227.453000", "114228.435000", "114229.431000", "114230.453000", "114231.429000", "114232.440000", "114233.434000", "114234.417000", "114235.439000", "114236.483000", "114237.442000", "114238.471000", "114239.463000", "114240.514000", "114241.443000", "114242.439000", "114243.444000", "114244.457000", "114245.448000", "114246.522000", "114247.451000", "114248.451000", "114249.430000", "114250.441000", "114251.437000", "114252.422000", "114253.440000", "114254.446000", "114255.442000", "114256.433000", "114257.437000", "114258.436000", "114259.496000", "114300.448000", "114301.463000", "114302.433000", "114303.440000", "114304.489000", "114305.485000", "114306.463000", "114307.442000", "114308.436000", "114309.438000", "114310.412000", "114311.474000"],
      "InstanceCreationTime": ["113824.625000", "113825.432000", "113826.464000", "113827.452000", "113828.441000", "113829.448000", "113830.448000", "113831.425000", "113832.416000", "113833.433000", "113834.451000", "113835.417000", "113836.397000", "113837.421000", "113838.437000", "113839.440000", "113840.446000", "113841.431000", "113842.435000", "113843.452000", "113844.430000", "113845.441000", "113846.439000", "113847.446000", "113848.444000", "113849.426000", "113850.425000", "113851.449000", "113852.423000", "113853.465000", "113854.456000", "113855.428000", "113856.446000", "113857.432000", "113858.435000", "113859.435000", "113900.441000", "113901.539000", "113902.459000", "113903.418000", "113904.443000", "113905.478000", "113906.451000", "113907.436000", "113908.437000", "113909.453000", "113910.442000", "113911.456000", "113912.429000", "113913.448000", "113914.431000", "113915.456000", "113916.455000", "113917.422000", "113918.436000", "113919.449000", "113920.431000", "113921.449000", "113922.443000", "113923.439000", "113924.406000", "113925.441000", "113926.430000", "113927.439000", "113928.429000", "113929.438000", "113930.442000", "113931.451000", "113932.439000", "113933.464000", "113934.425000", "113935.457000", "113936.519000", "113937.456000", "113938.437000", "113939.454000", "113940.443000", "113941.441000", "113942.450000", "113943.451000", "113944.428000", "113945.432000", "113946.444000", "113947.431000", "113948.427000", "113949.435000", "113950.435000", "113951.434000", "113952.432000", "113953.469000", "113954.521000", "113955.421000", "113956.453000", "113957.441000", "113958.440000", "113959.426000", "114000.436000", "114001.444000", "114002.432000", "114003.462000", "114004.437000", "114005.450000", "114006.428000", "114007.452000", "114008.452000", "114009.475000", "114010.456000", "114011.448000", "114012.468000", "114013.434000", "114014.461000", "114015.448000", "114016.433000", "114017.450000", "114018.516000", "114019.440000", "114020.449000", "114021.461000", "114022.443000", "114023.441000", "114024.456000", "114025.441000", "114026.453000", "114027.436000", "114028.439000", "114029.467000", "114030.467000", "114031.460000", "114032.443000", "114033.412000", "114034.445000", "114035.440000", "114036.452000", "114037.437000", "114038.444000", "114039.433000", "114040.460000", "114041.486000", "114042.422000", "114043.462000", "114044.431000", "114045.439000", "114046.452000", "114047.456000", "114048.420000", "114049.445000", "114050.450000", "114051.440000", "114052.448000", "114053.450000", "114054.436000", "114055.467000", "114056.456000", "114057.444000", "114058.458000", "114059.445000", "114100.447000", "114101.459000", "114102.455000", "114103.455000", "114104.424000", "114105.449000", "114106.463000", "114107.469000", "114108.463000", "114109.461000", "114110.427000", "114111.460000", "114112.471000", "114113.452000", "114114.447000", "114115.450000", "114116.432000", "114117.446000", "114118.515000", "114119.449000", "114120.449000", "114121.439000", "114122.476000", "114123.435000", "114124.459000", "114125.463000", "114126.463000", "114127.445000", "114128.462000", "114129.445000", "114130.444000", "114131.442000", "114132.450000", "114133.440000", "114134.444000", "114135.441000", "114136.428000", "114137.430000", "114138.458000", "114139.429000", "114140.423000", "114141.446000", "114142.424000", "114143.453000", "114144.438000", "114145.449000", "114146.475000", "114147.441000", "114148.453000", "114149.475000", "114150.425000", "114151.453000", "114152.432000", "114153.439000", "114154.439000", "114155.445000", "114156.442000", "114157.465000", "114158.444000", "114159.438000", "114200.479000", "114201.444000", "114202.454000", "114203.467000", "114204.463000", "114205.470000", "114206.429000", "114207.459000", "114208.481000", "114209.445000", "114210.424000", "114211.442000", "114212.443000", "114213.493000", "114214.462000", "114215.448000", "114216.459000", "114217.464000", "114218.462000", "114219.443000", "114220.435000", "114221.454000", "114222.446000", "114223.459000", "114224.452000", "114225.431000", "114226.427000", "114227.453000", "114228.435000", "114229.431000", "114230.453000", "114231.429000", "114232.440000", "114233.434000", "114234.417000", "114235.439000", "114236.483000", "114237.442000", "114238.471000", "114239.463000", "114240.514000", "114241.443000", "114242.439000", "114243.444000", "114244.457000", "114245.448000", "114246.522000", "114247.451000", "114248.451000", "114249.430000", "114250.441000", "114251.437000", "114252.422000", "114253.440000", "114254.446000", "114255.442000", "114256.433000", "114257.437000", "114258.436000", "114259.496000", "114300.448000", "114301.463000", "114302.433000", "114303.440000", "114304.489000", "114305.485000", "114306.463000", "114307.442000", "114308.436000", "114309.438000", "114310.412000", "114311.474000"],
      "InstanceNumber": [1, 2, 3, 4, 5, 6, 7, 8, 9, 10, 11, 12, 13, 14, 15, 16, 17, 18, 19, 20, 21, 22, 23, 24, 25, 26, 27, 28, 29, 30, 31, 32, 33, 34, 35, 36, 37, 38, 39, 40, 41, 42, 43, 44, 45, 46, 47, 48, 49, 50, 51, 52, 53, 54, 55, 56, 57, 58, 59, 60, 61, 62, 63, 64, 65, 66, 67, 68, 69, 70, 71, 72, 73, 74, 75, 76, 77, 78, 79, 80, 81, 82, 83, 84, 85, 86, 87, 88, 89, 90, 91, 92, 93, 94, 95, 96, 97, 98, 99, 100, 101, 102, 103, 104, 105, 106, 107, 108, 109, 110, 111, 112, 113, 114, 115, 116, 117, 118, 119, 120, 121, 122, 123, 124, 125, 126, 127, 128, 129, 130, 131, 132, 133, 134, 135, 136, 137, 138, 139, 140, 141, 142, 143, 144, 145, 146, 147, 148, 149, 150, 151, 152, 153, 154, 155, 156, 157, 158, 159, 160, 161, 162, 163, 164, 165, 166, 167, 168, 169, 170, 171, 172, 173, 174, 175, 176, 177, 178, 179, 180, 181, 182, 183, 184, 185, 186, 187, 188, 189, 190, 191, 192, 193, 194, 195, 196, 197, 198, 199, 200, 201, 202, 203, 204, 205, 206, 207, 208, 209, 210, 211, 212, 213, 214, 215, 216, 217, 218, 219, 220, 221, 222, 223, 224, 225, 226, 227, 228, 229, 230, 231, 232, 233, 234, 235, 236, 237, 238, 239, 240, 241, 242, 243, 244, 245, 246, 247, 248, 249, 250, 251, 252, 253, 254, 255, 256, 257, 258, 259, 260, 261, 262, 263, 264, 265, 266, 267, 268, 269, 270, 271, 272, 273, 274, 275, 276, 277, 278, 279, 280, 281, 282, 283, 284, 285, 286, 287, 288],
      "LargestImagePixelValue": [1096, 747, 791, 703, 753, 672, 924, 1199, 708, 896, 1050, 658, 714, 751, 700, 850, 694, 1018, 1075, 783, 759, 921, 1149, 712, 710, 818, 697, 758, 686, 693, 1240, 1125, 1178, 1045, 754, 669, 879, 710, 703, 834, 1033, 1257, 1081, 684, 719, 696, 687, 716, 1104, 925, 897, 748, 760, 767, 708, 744, 787, 1299, 821, 763, 791, 1249, 756, 708, 868, 900, 1112, 918, 728, 651, 916, 708, 976, 707, 709, 982, 1193, 727, 705, 711, 899, 706, 971, 821, 1137, 1354, 853, 688, 672, 1101, 705, 710, 822, 1063, 720, 720, 725, 875, 689, 703, 661, 1091, 1027, 726, 734, 939, 817, 671, 692, 698, 684, 727, 944, 1308, 895, 795, 816, 760, 1050, 680, 703, 913, 1080, 703, 790, 1134, 1013, 914, 764, 746, 704, 1110, 791, 684, 774, 852, 689, 691, 731, 782, 1226, 745, 708, 914, 985, 696, 734, 706, 974, 704, 726, 1079, 1267, 739, 726, 1083, 710, 685, 742, 963, 953, 736, 731, 704, 1084, 733, 708, 691, 1055, 944, 752, 691, 703, 889, 1196, 748, 669, 726, 827, 684, 728, 695, 1071, 1195, 754, 694, 856, 1018, 683, 673, 688, 1108, 839, 698, 776, 1233, 744, 668, 825, 714, 714, 849, 887, 808, 1076, 1333, 791, 704, 910, 778, 658, 778, 1234, 803, 729, 760, 1042, 986, 728, 706, 1117, 902, 675, 742, 1131, 687, 707, 1086, 692, 817, 895, 1114, 863, 694, 652, 819, 688, 700, 806, 1102, 1097, 1201, 752, 685, 665, 981, 729, 704, 950, 711, 1049, 1234, 736, 672, 1066, 896, 650, 791, 1118, 1032, 694, 713, 760, 1068, 1113, 789, 727, 705, 651, 1000, 662, 672, 757, 903, 830, 704, 709, 1106, 746, 675, 962, 655, 817, 821, 684, 1168, 733, 676],
      "WindowCenter": [338.0, 334.0, 334.0, 333.0, 334.0, 333.0, 336.0, 337.0, 333.0, 335.0, 336.0, 333.0, 333.0, 334.0, 333.0, 335.0, 333.0, 336.0, 336.0, 334.0, 333.0, 335.0, 336.0, 332.0, 333.0, 333.0, 333.0, 334.0, 333.0, 334.0, 337.0, 336.0, 336.0, 335.0, 332.0, 332.0, 334.0, 333.0, 332.0, 334.0, 335.0, 336.0, 334.0, 331.0, 332.0, 332.0, 332.0, 333.0, 336.0, 334.0, 334.0, 332.0, 332.0, 333.0, 332.0, 333.0, 334.0, 337.0, 334.0, 333.0, 333.0, 336.0, 333.0, 332.0, 334.0, 334.0, 336.0, 334.0, 332.0, 332.0, 334.0, 332.0, 335.0, 332.0, 333.0, 335.0, 336.0, 332.0, 332.0, 333.0, 335.0, 333.0, 335.0, 334.0, 336.0, 337.0, 333.0, 332.0, 332.0, 335.0, 332.0, 332.0, 333.0, 335.0, 332.0, 332.0, 332.0, 333.0, 332.0, 332.0, 332.0, 336.0, 335.0, 333.0, 333.0, 334.0, 334.0, 332.0, 332.0, 333.0, 333.0, 334.0, 336.0, 337.0, 334.0, 333.0, 333.0, 333.0, 335.0, 332.0, 332.0, 335.0, 336.0, 332.0, 333.0, 335.0, 335.0, 334.0, 332.0, 332.0, 332.0, 335.0, 333.0, 332.0, 333.0, 333.0, 332.0, 332.0, 333.0, 334.0, 337.0, 333.0, 332.0, 334.0, 335.0, 333.0, 333.0, 332.0, 335.0, 332.0, 333.0, 336.0, 337.0, 333.0, 332.0, 335.0, 332.0, 332.0, 333.0, 335.0, 335.0, 332.0, 332.0, 332.0, 335.0, 333.0, 333.0, 333.0, 335.0, 335.0, 333.0, 332.0, 332.0, 334.0, 336.0, 333.0, 332.0, 333.0, 334.0, 333.0, 333.0, 333.0, 336.0, 337.0, 333.0, 333.0, 334.0, 336.0, 332.0, 332.0, 332.0, 337.0, 334.0, 333.0, 334.0, 337.0, 333.0, 332.0, 334.0, 334.0, 334.0, 335.0, 335.0, 334.0, 336.0, 337.0, 333.0, 332.0, 335.0, 334.0, 332.0, 334.0, 337.0, 334.0, 333.0, 333.0, 335.0, 335.0, 332.0, 332.0, 336.0, 334.0, 332.0, 332.0, 335.0, 332.0, 332.0, 336.0, 333.0, 334.0, 334.0, 336.0, 334.0, 332.0, 332.0, 334.0, 333.0, 334.0, 334.0, 336.0, 336.0, 337.0, 333.0, 332.0, 333.0, 335.0, 334.0, 333.0, 336.0, 333.0, 336.0, 337.0, 333.0, 333.0, 336.0, 335.0, 333.0, 334.0, 336.0, 335.0, 332.0, 333.0, 334.0, 336.0, 336.0, 333.0, 333.0, 332.0, 333.0, 336.0, 333.0, 333.0, 334.0, 336.0, 335.0, 333.0, 333.0, 337.0, 334.0, 333.0, 336.0, 333.0, 335.0, 335.0, 334.0, 337.0, 334.0, 333.0],
      "WindowWidth": [728.0, 721.0, 722.0, 719.0, 721.0, 720.0, 723.0, 725.0, 719.0, 722.0, 723.0, 718.0, 719.0, 720.0, 720.0, 722.0, 720.0, 723.0, 723.0, 720.0, 719.0, 721.0, 723.0, 718.0, 719.0, 720.0, 719.0, 720.0, 720.0, 720.0, 724.0, 723.0, 723.0, 722.0, 717.0, 717.0, 720.0, 719.0, 718.0, 720.0, 722.0, 722.0, 720.0, 715.0, 717.0, 718.0, 718.0, 719.0, 723.0, 721.0, 720.0, 717.0, 717.0, 719.0, 718.0, 719.0, 720.0, 725.0, 720.0, 718.0, 719.0, 723.0, 718.0, 718.0, 720.0, 720.0, 723.0, 720.0, 718.0, 716.0, 720.0, 718.0, 722.0, 718.0, 719.0, 721.0, 723.0, 717.0, 718.0, 719.0, 722.0, 719.0, 723.0, 720.0, 722.0, 724.0, 719.0, 716.0, 717.0, 722.0, 717.0, 718.0, 719.0, 722.0, 718.0, 717.0, 718.0, 719.0, 718.0, 718.0, 718.0, 723.0, 722.0, 719.0, 719.0, 720.0, 719.0, 718.0, 718.0, 719.0, 720.0, 720.0, 723.0, 726.0, 721.0, 719.0, 719.0, 718.0, 722.0, 718.0, 718.0, 721.0, 723.0, 718.0, 719.0, 722.0, 721.0, 720.0, 717.0, 717.0, 718.0, 722.0, 718.0, 717.0, 719.0, 719.0, 718.0, 718.0, 719.0, 720.0, 724.0, 719.0, 718.0, 720.0, 721.0, 718.0, 719.0, 718.0, 722.0, 718.0, 719.0, 723.0, 724.0, 718.0, 718.0, 722.0, 717.0, 718.0, 718.0, 721.0, 721.0, 718.0, 718.0, 718.0, 722.0, 719.0, 718.0, 719.0, 722.0, 721.0, 719.0, 718.0, 718.0, 720.0, 723.0, 719.0, 718.0, 719.0, 721.0, 719.0, 719.0, 719.0, 723.0, 724.0, 719.0, 719.0, 720.0, 723.0, 718.0, 718.0, 718.0, 724.0, 720.0, 719.0, 720.0, 724.0, 719.0, 717.0, 721.0, 720.0, 720.0, 722.0, 722.0, 720.0, 723.0, 724.0, 719.0, 718.0, 721.0, 720.0, 718.0, 720.0, 724.0, 720.0, 719.0, 719.0, 722.0, 721.0, 718.0, 718.0, 723.0, 720.0, 717.0, 718.0, 722.0, 718.0, 718.0, 723.0, 719.0, 720.0, 721.0, 723.0, 720.0, 718.0, 717.0, 721.0, 720.0, 720.0, 721.0, 724.0, 724.0, 725.0, 719.0, 718.0, 719.0, 723.0, 720.0, 720.0, 723.0, 719.0, 723.0, 725.0, 719.0, 719.0, 723.0, 722.0, 718.0, 720.0, 723.0, 722.0, 718.0, 719.0, 720.0, 723.0, 723.0, 719.0, 719.0, 718.0, 718.0, 724.0, 719.0, 719.0, 720.0, 723.0, 722.0, 720.0, 720.0, 724.0, 720.0, 720.0, 723.0, 720.0, 722.0, 723.0, 721.0, 726.0, 720.0, 720.0]
    },
    "slices": {}
  }
}