{
  "AcquisitionMatrixPE": 96,
  "AcquisitionNumber": 1,
  "BandwidthPerPixelPhaseEncode": 18.939,
  "BaseResolution": 96,
  "BodyPartExamined": "BRAIN",
  "ConsistencyInfo": "N4_VE11C_LATEST_20160120",
  "ConversionSoftware": "dcm2niix",
  "ConversionSoftwareVersion": "v1.0.20171215 (OpenJPEG build) GCC6.3.0",
  "DerivedVendorReportedEchoSpacing": 0.000550011,
  "DeviceSerialNumber": "66112",
  "DwellTime": 2.2e-06,
  "EchoTime": 0.033,
  "EchoTrainLength": 96,
  "EffectiveEchoSpacing": 0.000550011,
  "FlipAngle": 59,
  "ImageOrientationPatientDICOM": [
    0.999528,
    -0.00279944,
    0.0306045,
    0.00209342,
    0.999731,
    0.0230769
  ],
  "ImageType": [
    "ORIGINAL",
    "PRIMARY",
    "FMRI",
    "NONE",
    "ND",
    "NORM",
    "MOSAIC"
  ],
  "InPlanePhaseEncodingDirectionDICOM": "COL",
  "InstitutionAddress": "Maynard_3_Hanover_NH_US_03755",
  "InstitutionName": "Dartmouth_College_-_PBS",
  "InstitutionalDepartmentName": "Department",
  "MRAcquisitionType": "2D",
  "MagneticFieldStrength": 3,
  "Manufacturer": "Siemens",
  "ManufacturersModelName": "Prisma",
  "Modality": "MR",
  "MultibandAccelerationFactor": 4,
  "PatientPosition": "HFS",
  "PercentPhaseFOV": 100,
  "PhaseEncodingDirection": "j-",
  "PhaseEncodingSteps": 96,
  "PhaseResolution": 1,
  "PixelBandwidth": 2365,
  "ProcedureStepDescription": "Gobbini_Matteo_1038_hyperface",
  "ProtocolName": "func_run-05_task-localizer",
  "PulseSequenceDetails": "%SiemensSeq%_ep2d_bold",
  "ReceiveCoilActiveElements": "HEA;HEP",
  "ReceiveCoilName": "Head_32",
  "ReconMatrixPE": 96,
  "RepetitionTime": 1,
  "SAR": 0.041155,
  "ScanOptions": "FS",
  "ScanningSequence": "EP",
  "SequenceName": "_epfid2d1_96",
  "SequenceVariant": "SK",
  "SeriesDescription": "func_run-05_task-localizer",
  "SeriesNumber": 35,
  "ShimSetting": [
    4154,
    -7719,
    -7468,
    313,
    -11,
    94,
    -55,
    63
  ],
  "SliceThickness": 2.5,
  "SliceTiming": [
    0.735,
    0,
    0.49,
    0.0825,
    0.5725,
    0.1625,
    0.6525,
    0.3275,
    0.8175,
    0.4075,
    0.8975,
    0.245,
    0.735,
    0,
    0.49,
    0.0825,
    0.5725,
    0.1625,
    0.6525,
    0.3275,
    0.8175,
    0.4075,
    0.8975,
    0.245,
    0.735,
    0,
    0.49,
    0.0825,
    0.5725,
    0.1625,
    0.6525,
    0.3275,
    0.8175,
    0.4075,
    0.8975,
    0.245,
    0.735,
    0,
    0.49,
    0.0825,
    0.5725,
    0.1625,
    0.6525,
    0.3275,
    0.8175,
    0.4075,
    0.8975,
    0.245
  ],
  "SoftwareVersions": "syngo_MR_E11",
  "SpacingBetweenSlices": 2.5,
  "StationName": "AWP66112",
  "TotalReadoutTime": 0.0522511,
  "TxRefAmp": 228.465,
  "time": {
    "samples": {
      "AcquisitionNumber": [
        1,
        2,
        3,
        4,
        5,
        6,
        7,
        8,
        9,
        10,
        11,
        12,
        13,
        14,
        15,
        16,
        17,
        18,
        19,
        20,
        21,
        22,
        23,
        24,
        25,
        26,
        27,
        28,
        29,
        30,
        31,
        32,
        33,
        34,
        35,
        36,
        37,
        38,
        39,
        40,
        41,
        42,
        43,
        44,
        45,
        46,
        47,
        48,
        49,
        50,
        51,
        52,
        53,
        54,
        55,
        56,
        57,
        58,
        59,
        60,
        61,
        62,
        63,
        64,
        65,
        66,
        67,
        68,
        69,
        70,
        71,
        72,
        73,
        74,
        75,
        76,
        77,
        78,
        79,
        80,
        81,
        82,
        83,
        84,
        85,
        86,
        87,
        88,
        89,
        90,
        91,
        92,
        93,
        94,
        95,
        96,
        97,
        98,
        99,
        100,
        101,
        102,
        103,
        104,
        105,
        106,
        107,
        108,
        109,
        110,
        111,
        112,
        113,
        114,
        115,
        116,
        117,
        118,
        119,
        120,
        121,
        122,
        123,
        124,
        125,
        126,
        127,
        128,
        129,
        130,
        131,
        132,
        133,
        134,
        135,
        136,
        137,
        138,
        139,
        140,
        141,
        142,
        143,
        144,
        145,
        146,
        147,
        148,
        149,
        150,
        151,
        152,
        153,
        154,
        155,
        156,
        157,
        158,
        159,
        160,
        161,
        162,
        163,
        164,
        165,
        166,
        167,
        168,
        169,
        170,
        171,
        172,
        173,
        174,
        175,
        176,
        177,
        178,
        179,
        180,
        181,
        182,
        183,
        184,
        185,
        186,
        187,
        188,
        189,
        190,
        191,
        192,
        193,
        194,
        195,
        196,
        197,
        198,
        199,
        200,
        201,
        202,
        203,
        204,
        205,
        206,
        207,
        208,
        209,
        210,
        211,
        212,
        213,
        214,
        215,
        216,
        217,
        218,
        219,
        220,
        221,
        222,
        223,
        224,
        225,
        226,
        227,
        228,
        229,
        230,
        231,
        232,
        233,
        234,
        235,
        236
      ],
      "AcquisitionTime": [
        "102934.845000",
        "102935.845000",
        "102936.845000",
        "102937.845000",
        "102938.845000",
        "102939.845000",
        "102940.845000",
        "102941.845000",
        "102942.845000",
        "102943.845000",
        "102944.845000",
        "102945.845000",
        "102946.845000",
        "102947.845000",
        "102948.845000",
        "102949.845000",
        "102950.845000",
        "102951.845000",
        "102952.845000",
        "102953.845000",
        "102954.845000",
        "102955.845000",
        "102956.845000",
        "102957.845000",
        "102958.845000",
        "102959.845000",
        "103000.845000",
        "103001.845000",
        "103002.845000",
        "103003.845000",
        "103004.845000",
        "103005.845000",
        "103006.845000",
        "103007.845000",
        "103008.845000",
        "103009.845000",
        "103010.845000",
        "103011.845000",
        "103012.845000",
        "103013.845000",
        "103014.845000",
        "103015.845000",
        "103016.845000",
        "103017.845000",
        "103018.845000",
        "103019.845000",
        "103020.845000",
        "103021.845000",
        "103022.845000",
        "103023.845000",
        "103024.845000",
        "103025.845000",
        "103026.845000",
        "103027.845000",
        "103028.845000",
        "103029.845000",
        "103030.845000",
        "103031.845000",
        "103032.845000",
        "103033.845000",
        "103034.845000",
        "103035.845000",
        "103036.845000",
        "103037.845000",
        "103038.845000",
        "103039.845000",
        "103040.845000",
        "103041.845000",
        "103042.845000",
        "103043.845000",
        "103044.845000",
        "103045.845000",
        "103046.845000",
        "103047.845000",
        "103048.845000",
        "103049.845000",
        "103050.845000",
        "103051.845000",
        "103052.845000",
        "103053.845000",
        "103054.845000",
        "103055.845000",
        "103056.845000",
        "103057.845000",
        "103058.845000",
        "103059.845000",
        "103100.845000",
        "103101.845000",
        "103102.845000",
        "103103.845000",
        "103104.845000",
        "103105.845000",
        "103106.845000",
        "103107.845000",
        "103108.845000",
        "103109.845000",
        "103110.845000",
        "103111.845000",
        "103112.845000",
        "103113.845000",
        "103114.845000",
        "103115.845000",
        "103116.845000",
        "103117.845000",
        "103118.845000",
        "103119.845000",
        "103120.845000",
        "103121.845000",
        "103122.845000",
        "103123.845000",
        "103124.845000",
        "103125.845000",
        "103126.845000",
        "103127.845000",
        "103128.845000",
        "103129.845000",
        "103130.845000",
        "103131.845000",
        "103132.845000",
        "103133.845000",
        "103134.845000",
        "103135.845000",
        "103136.845000",
        "103137.845000",
        "103138.845000",
        "103139.845000",
        "103140.845000",
        "103141.845000",
        "103142.845000",
        "103143.845000",
        "103144.845000",
        "103145.845000",
        "103146.845000",
        "103147.845000",
        "103148.845000",
        "103149.845000",
        "103150.845000",
        "103151.845000",
        "103152.845000",
        "103153.845000",
        "103154.845000",
        "103155.845000",
        "103156.845000",
        "103157.845000",
        "103158.845000",
        "103159.845000",
        "103200.845000",
        "103201.845000",
        "103202.845000",
        "103203.845000",
        "103204.845000",
        "103205.845000",
        "103206.845000",
        "103207.845000",
        "103208.845000",
        "103209.845000",
        "103210.845000",
        "103211.845000",
        "103212.845000",
        "103213.845000",
        "103214.845000",
        "103215.845000",
        "103216.845000",
        "103217.845000",
        "103218.845000",
        "103219.845000",
        "103220.845000",
        "103221.845000",
        "103222.845000",
        "103223.845000",
        "103224.845000",
        "103225.845000",
        "103226.845000",
        "103227.845000",
        "103228.845000",
        "103229.845000",
        "103230.845000",
        "103231.845000",
        "103232.845000",
        "103233.845000",
        "103234.845000",
        "103235.845000",
        "103236.845000",
        "103237.845000",
        "103238.845000",
        "103239.845000",
        "103240.845000",
        "103241.845000",
        "103242.845000",
        "103243.845000",
        "103244.845000",
        "103245.845000",
        "103246.845000",
        "103247.845000",
        "103248.845000",
        "103249.845000",
        "103250.845000",
        "103251.845000",
        "103252.845000",
        "103253.845000",
        "103254.845000",
        "103255.845000",
        "103256.845000",
        "103257.845000",
        "103258.845000",
        "103259.845000",
        "103300.845000",
        "103301.845000",
        "103302.845000",
        "103303.845000",
        "103304.845000",
        "103305.845000",
        "103306.845000",
        "103307.845000",
        "103308.845000",
        "103309.845000",
        "103310.845000",
        "103311.845000",
        "103312.845000",
        "103313.845000",
        "103314.845000",
        "103315.845000",
        "103316.845000",
        "103317.845000",
        "103318.845000",
        "103319.845000",
        "103320.845000",
        "103321.845000",
        "103322.845000",
        "103323.845000",
        "103324.845000",
        "103325.845000",
        "103326.845000",
        "103327.845000",
        "103328.845000",
        "103329.845000"
      ],
      "ContentTime": [
        "102936.623000",
        "102937.477000",
        "102938.488000",
        "102939.522000",
        "102940.502000",
        "102941.487000",
        "102942.468000",
        "102943.472000",
        "102944.483000",
        "102945.469000",
        "102946.487000",
        "102947.483000",
        "102948.496000",
        "102949.482000",
        "102950.491000",
        "102951.498000",
        "102952.497000",
        "102953.511000",
        "102954.471000",
        "102955.471000",
        "102956.460000",
        "102957.540000",
        "102958.495000",
        "102959.485000",
        "103000.555000",
        "103001.481000",
        "103002.492000",
        "103003.478000",
        "103004.501000",
        "103005.484000",
        "103006.474000",
        "103007.476000",
        "103008.492000",
        "103009.474000",
        "103010.530000",
        "103011.459000",
        "103012.482000",
        "103013.483000",
        "103014.470000",
        "103015.493000",
        "103016.482000",
        "103017.487000",
        "103018.486000",
        "103019.478000",
        "103020.479000",
        "103021.556000",
        "103022.524000",
        "103023.494000",
        "103024.480000",
        "103025.475000",
        "103026.497000",
        "103027.478000",
        "103028.480000",
        "103029.483000",
        "103030.495000",
        "103031.490000",
        "103032.487000",
        "103033.508000",
        "103034.468000",
        "103035.492000",
        "103036.484000",
        "103037.478000",
        "103038.486000",
        "103039.476000",
        "103040.496000",
        "103041.484000",
        "103042.510000",
        "103043.504000",
        "103044.493000",
        "103045.505000",
        "103046.461000",
        "103047.481000",
        "103048.488000",
        "103049.514000",
        "103050.527000",
        "103051.521000",
        "103052.521000",
        "103053.520000",
        "103054.486000",
        "103055.512000",
        "103056.474000",
        "103057.491000",
        "103058.498000",
        "103059.527000",
        "103100.510000",
        "103101.495000",
        "103102.474000",
        "103103.471000",
        "103104.462000",
        "103105.477000",
        "103106.479000",
        "103107.509000",
        "103108.557000",
        "103109.486000",
        "103110.486000",
        "103111.462000",
        "103112.485000",
        "103113.475000",
        "103114.492000",
        "103115.488000",
        "103116.493000",
        "103117.513000",
        "103118.483000",
        "103119.491000",
        "103120.540000",
        "103121.492000",
        "103122.529000",
        "103123.514000",
        "103124.487000",
        "103125.481000",
        "103126.488000",
        "103127.477000",
        "103128.493000",
        "103129.490000",
        "103130.481000",
        "103131.527000",
        "103132.487000",
        "103133.506000",
        "103134.481000",
        "103135.498000",
        "103136.511000",
        "103137.511000",
        "103138.464000",
        "103139.508000",
        "103140.490000",
        "103141.480000",
        "103142.520000",
        "103143.498000",
        "103144.523000",
        "103145.525000",
        "103146.488000",
        "103147.561000",
        "103148.502000",
        "103149.461000",
        "103150.482000",
        "103151.562000",
        "103152.476000",
        "103153.514000",
        "103154.498000",
        "103155.520000",
        "103156.488000",
        "103157.483000",
        "103158.500000",
        "103159.497000",
        "103200.485000",
        "103201.485000",
        "103202.498000",
        "103203.471000",
        "103204.476000",
        "103205.475000",
        "103206.469000",
        "103207.494000",
        "103208.512000",
        "103209.511000",
        "103210.495000",
        "103211.498000",
        "103212.475000",
        "103213.482000",
        "103214.476000",
        "103215.497000",
        "103216.486000",
        "103217.486000",
        "103218.482000",
        "103219.475000",
        "103220.519000",
        "103221.474000",
        "103222.476000",
        "103223.493000",
        "103224.478000",
        "103225.505000",
        "103226.476000",
        "103227.500000",
        "103228.486000",
        "103229.475000",
        "103230.483000",
        "103231.480000",
        "103232.479000",
        "103233.493000",
        "103234.486000",
        "103235.498000",
        "103236.476000",
        "103237.479000",
        "103238.499000",
        "103239.499000",
        "103240.500000",
        "103241.473000",
        "103242.492000",
        "103243.521000",
        "103244.480000",
        "103245.495000",
        "103246.474000",
        "103247.492000",
        "103248.496000",
        "103249.481000",
        "103250.478000",
        "103251.481000",
        "103252.475000",
        "103253.499000",
        "103254.549000",
        "103255.535000",
        "103256.488000",
        "103257.526000",
        "103258.481000",
        "103259.476000",
        "103300.507000",
        "103301.519000",
        "103302.500000",
        "103303.495000",
        "103304.462000",
        "103305.484000",
        "103306.482000",
        "103307.542000",
        "103308.486000",
        "103309.483000",
        "103310.481000",
        "103311.533000",
        "103312.492000",
        "103313.490000",
        "103314.493000",
        "103315.546000",
        "103316.501000",
        "103317.491000",
        "103318.472000",
        "103319.499000",
        "103320.506000",
        "103321.472000",
        "103322.490000",
        "103323.506000",
        "103324.502000",
        "103325.473000",
        "103326.486000",
        "103327.513000",
        "103328.525000",
        "103329.482000",
        "103330.496000",
        "103331.532000"
      ],
      "InstanceCreationTime": [
        "102936.623000",
        "102937.477000",
        "102938.488000",
        "102939.522000",
        "102940.502000",
        "102941.487000",
        "102942.468000",
        "102943.472000",
        "102944.483000",
        "102945.469000",
        "102946.487000",
        "102947.483000",
        "102948.496000",
        "102949.482000",
        "102950.491000",
        "102951.498000",
        "102952.497000",
        "102953.511000",
        "102954.471000",
        "102955.471000",
        "102956.460000",
        "102957.540000",
        "102958.495000",
        "102959.485000",
        "103000.555000",
        "103001.481000",
        "103002.492000",
        "103003.478000",
        "103004.501000",
        "103005.484000",
        "103006.474000",
        "103007.476000",
        "103008.492000",
        "103009.474000",
        "103010.530000",
        "103011.459000",
        "103012.482000",
        "103013.483000",
        "103014.470000",
        "103015.493000",
        "103016.482000",
        "103017.487000",
        "103018.486000",
        "103019.478000",
        "103020.479000",
        "103021.556000",
        "103022.524000",
        "103023.494000",
        "103024.480000",
        "103025.475000",
        "103026.497000",
        "103027.478000",
        "103028.480000",
        "103029.483000",
        "103030.495000",
        "103031.490000",
        "103032.487000",
        "103033.508000",
        "103034.468000",
        "103035.492000",
        "103036.484000",
        "103037.478000",
        "103038.486000",
        "103039.476000",
        "103040.496000",
        "103041.484000",
        "103042.510000",
        "103043.504000",
        "103044.493000",
        "103045.505000",
        "103046.461000",
        "103047.481000",
        "103048.488000",
        "103049.514000",
        "103050.527000",
        "103051.521000",
        "103052.521000",
        "103053.520000",
        "103054.486000",
        "103055.512000",
        "103056.474000",
        "103057.491000",
        "103058.498000",
        "103059.527000",
        "103100.510000",
        "103101.495000",
        "103102.474000",
        "103103.471000",
        "103104.462000",
        "103105.477000",
        "103106.479000",
        "103107.509000",
        "103108.557000",
        "103109.486000",
        "103110.486000",
        "103111.462000",
        "103112.485000",
        "103113.475000",
        "103114.492000",
        "103115.488000",
        "103116.493000",
        "103117.513000",
        "103118.483000",
        "103119.491000",
        "103120.540000",
        "103121.492000",
        "103122.529000",
        "103123.514000",
        "103124.487000",
        "103125.481000",
        "103126.488000",
        "103127.477000",
        "103128.493000",
        "103129.490000",
        "103130.481000",
        "103131.527000",
        "103132.487000",
        "103133.506000",
        "103134.481000",
        "103135.498000",
        "103136.511000",
        "103137.511000",
        "103138.464000",
        "103139.508000",
        "103140.490000",
        "103141.480000",
        "103142.520000",
        "103143.498000",
        "103144.523000",
        "103145.525000",
        "103146.488000",
        "103147.561000",
        "103148.502000",
        "103149.461000",
        "103150.482000",
        "103151.562000",
        "103152.476000",
        "103153.514000",
        "103154.498000",
        "103155.520000",
        "103156.488000",
        "103157.483000",
        "103158.500000",
        "103159.497000",
        "103200.485000",
        "103201.485000",
        "103202.498000",
        "103203.471000",
        "103204.476000",
        "103205.475000",
        "103206.469000",
        "103207.494000",
        "103208.512000",
        "103209.511000",
        "103210.495000",
        "103211.498000",
        "103212.475000",
        "103213.482000",
        "103214.476000",
        "103215.497000",
        "103216.486000",
        "103217.486000",
        "103218.482000",
        "103219.475000",
        "103220.519000",
        "103221.474000",
        "103222.476000",
        "103223.493000",
        "103224.478000",
        "103225.505000",
        "103226.476000",
        "103227.500000",
        "103228.486000",
        "103229.475000",
        "103230.483000",
        "103231.480000",
        "103232.479000",
        "103233.493000",
        "103234.486000",
        "103235.498000",
        "103236.476000",
        "103237.479000",
        "103238.499000",
        "103239.499000",
        "103240.500000",
        "103241.473000",
        "103242.492000",
        "103243.521000",
        "103244.480000",
        "103245.495000",
        "103246.474000",
        "103247.492000",
        "103248.496000",
        "103249.481000",
        "103250.478000",
        "103251.481000",
        "103252.475000",
        "103253.499000",
        "103254.549000",
        "103255.535000",
        "103256.488000",
        "103257.526000",
        "103258.481000",
        "103259.476000",
        "103300.507000",
        "103301.519000",
        "103302.500000",
        "103303.495000",
        "103304.462000",
        "103305.484000",
        "103306.482000",
        "103307.542000",
        "103308.486000",
        "103309.483000",
        "103310.481000",
        "103311.533000",
        "103312.492000",
        "103313.490000",
        "103314.493000",
        "103315.546000",
        "103316.501000",
        "103317.491000",
        "103318.472000",
        "103319.499000",
        "103320.506000",
        "103321.472000",
        "103322.490000",
        "103323.506000",
        "103324.502000",
        "103325.473000",
        "103326.486000",
        "103327.513000",
        "103328.525000",
        "103329.482000",
        "103330.496000",
        "103331.532000"
      ],
      "InstanceNumber": [
        1,
        2,
        3,
        4,
        5,
        6,
        7,
        8,
        9,
        10,
        11,
        12,
        13,
        14,
        15,
        16,
        17,
        18,
        19,
        20,
        21,
        22,
        23,
        24,
        25,
        26,
        27,
        28,
        29,
        30,
        31,
        32,
        33,
        34,
        35,
        36,
        37,
        38,
        39,
        40,
        41,
        42,
        43,
        44,
        45,
        46,
        47,
        48,
        49,
        50,
        51,
        52,
        53,
        54,
        55,
        56,
        57,
        58,
        59,
        60,
        61,
        62,
        63,
        64,
        65,
        66,
        67,
        68,
        69,
        70,
        71,
        72,
        73,
        74,
        75,
        76,
        77,
        78,
        79,
        80,
        81,
        82,
        83,
        84,
        85,
        86,
        87,
        88,
        89,
        90,
        91,
        92,
        93,
        94,
        95,
        96,
        97,
        98,
        99,
        100,
        101,
        102,
        103,
        104,
        105,
        106,
        107,
        108,
        109,
        110,
        111,
        112,
        113,
        114,
        115,
        116,
        117,
        118,
        119,
        120,
        121,
        122,
        123,
        124,
        125,
        126,
        127,
        128,
        129,
        130,
        131,
        132,
        133,
        134,
        135,
        136,
        137,
        138,
        139,
        140,
        141,
        142,
        143,
        144,
        145,
        146,
        147,
        148,
        149,
        150,
        151,
        152,
        153,
        154,
        155,
        156,
        157,
        158,
        159,
        160,
        161,
        162,
        163,
        164,
        165,
        166,
        167,
        168,
        169,
        170,
        171,
        172,
        173,
        174,
        175,
        176,
        177,
        178,
        179,
        180,
        181,
        182,
        183,
        184,
        185,
        186,
        187,
        188,
        189,
        190,
        191,
        192,
        193,
        194,
        195,
        196,
        197,
        198,
        199,
        200,
        201,
        202,
        203,
        204,
        205,
        206,
        207,
        208,
        209,
        210,
        211,
        212,
        213,
        214,
        215,
        216,
        217,
        218,
        219,
        220,
        221,
        222,
        223,
        224,
        225,
        226,
        227,
        228,
        229,
        230,
        231,
        232,
        233,
        234,
        235,
        236
      ],
      "LargestImagePixelValue": [
        887,
        822,
        862,
        754,
        772,
        870,
        763,
        850,
        940,
        1013,
        1093,
        907,
        1235,
        758,
        753,
        990,
        858,
        861,
        964,
        1110,
        825,
        774,
        734,
        728,
        803,
        752,
        749,
        774,
        890,
        739,
        828,
        766,
        915,
        1134,
        857,
        762,
        990,
        916,
        747,
        763,
        738,
        844,
        897,
        737,
        849,
        1021,
        766,
        860,
        853,
        929,
        830,
        816,
        1142,
        739,
        732,
        1112,
        745,
        798,
        1216,
        936,
        852,
        820,
        1022,
        762,
        712,
        735,
        918,
        734,
        743,
        881,
        748,
        779,
        886,
        764,
        991,
        733,
        891,
        1225,
        747,
        1197,
        1079,
        926,
        1282,
        780,
        943,
        1091,
        744,
        770,
        714,
        744,
        847,
        731,
        742,
        780,
        823,
        1042,
        1102,
        727,
        904,
        1055,
        765,
        745,
        825,
        1006,
        713,
        838,
        974,
        728,
        770,
        872,
        774,
        974,
        1160,
        1125,
        749,
        948,
        1042,
        742,
        831,
        936,
        744,
        717,
        772,
        1062,
        712,
        887,
        752,
        817,
        727,
        703,
        759,
        946,
        787,
        717,
        729,
        968,
        729,
        821,
        850,
        976,
        829,
        719,
        855,
        1032,
        748,
        781,
        862,
        956,
        872,
        781,
        808,
        833,
        1036,
        728,
        785,
        736,
        886,
        749,
        705,
        801,
        1070,
        851,
        761,
        852,
        1022,
        716,
        748,
        849,
        1006,
        774,
        765,
        939,
        1130,
        883,
        773,
        885,
        966,
        1099,
        762,
        949,
        952,
        1006,
        1105,
        768,
        805,
        730,
        691,
        767,
        821,
        816,
        782,
        703,
        710,
        782,
        844,
        785,
        875,
        989,
        932,
        939,
        1111,
        942,
        763,
        880,
        806,
        760,
        930,
        1024,
        798,
        757,
        752,
        850,
        943,
        956,
        1204,
        889,
        883,
        961,
        833,
        838,
        818,
        764,
        760,
        783,
        973,
        1034,
        1005,
        1015,
        1182,
        850,
        759,
        718,
        929,
        1097,
        984,
        983
      ],
      "WindowCenter": [
        365,
        364,
        364,
        363,
        364,
        365,
        365,
        365,
        366,
        367,
        367,
        365,
        367,
        363,
        362,
        365,
        363,
        363,
        364,
        365,
        362,
        362,
        362,
        361,
        363,
        363,
        362,
