{
  "AcquisitionMatrixPE": 96,
  "AcquisitionNumber": 1,
  "BandwidthPerPixelPhaseEncode": 18.939,
  "BaseResolution": 96,
  "BodyPartExamined": "BRAIN",
  "ConsistencyInfo": "N4_VE11C_LATEST_20160120",
  "ConversionSoftware": "dcm2niix",
  "ConversionSoftwareVersion": "v1.0.20171215 (OpenJPEG build) GCC6.3.0",
  "DerivedVendorReportedEchoSpacing": 0.000550011,
  "DeviceSerialNumber": "66112",
  "DwellTime": 2.2e-06,
  "EchoTime": 0.033,
  "EchoTrainLength": 96,
  "EffectiveEchoSpacing": 0.000550011,
  "FlipAngle": 59,
  "ImageOrientationPatientDICOM": [
    0.998137,
    0.059023,
    0.0154548,
    -0.0593003,
    0.998075,
    0.0181458
  ],
  "ImageType": [
    "ORIGINAL",
    "PRIMARY",
    "FMRI",
    "NONE",
    "ND",
    "NORM",
    "MOSAIC"
  ],
  "InPlanePhaseEncodingDirectionDICOM": "COL",
  "InstitutionAddress": "Maynard_3_Hanover_NH_US_03755",
  "InstitutionName": "Dartmouth_College_-_PBS",
  "InstitutionalDepartmentName": "Department",
  "MRAcquisitionType": "2D",
  "MagneticFieldStrength": 3,
  "Manufacturer": "Siemens",
  "ManufacturersModelName": "Prisma",
  "Modality": "MR",
  "MultibandAccelerationFactor": 4,
  "PatientPosition": "HFS",
  "PercentPhaseFOV": 100,
  "PhaseEncodingDirection": "j-",
  "PhaseEncodingSteps": 96,
  "PhaseResolution": 1,
  "PixelBandwidth": 2365,
  "ProcedureStepDescription": "Gobbini_Matteo_1038_hyperface",
  "ProtocolName": "func_run-05_task-localizer",
  "PulseSequenceDetails": "%SiemensSeq%_ep2d_bold",
  "ReceiveCoilActiveElements": "HEA;HEP",
  "ReceiveCoilName": "Head_32",
  "ReconMatrixPE": 96,
  "RepetitionTime": 1,
  "SAR": 0.0563181,
  "ScanOptions": "FS",
  "ScanningSequence": "EP",
  "SequenceName": "_epfid2d1_96",
  "SequenceVariant": "SK",
  "SeriesDescription": "func_run-05_task-localizer",
  "SeriesNumber": 35,
  "ShimSetting": [
    4141,
    -7709,
    -7312,
    657,
    19,
    71,
    98,
    31
  ],
  "SliceThickness": 2.5,
  "SliceTiming": [
    0.735,
    0,
    0.49,
    0.0825,
    0.5725,
    0.1625,
    0.6525,
    0.3275,
    0.8175,
    0.4075,
    0.8975,
    0.245,
    0.735,
    0,
    0.49,
    0.0825,
    0.5725,
    0.1625,
    0.6525,
    0.3275,
    0.8175,
    0.4075,
    0.8975,
    0.245,
    0.735,
    0,
    0.49,
    0.0825,
    0.5725,
    0.1625,
    0.6525,
    0.3275,
    0.8175,
    0.4075,
    0.8975,
    0.245,
    0.735,
    0,
    0.49,
    0.0825,
    0.5725,
    0.1625,
    0.6525,
    0.3275,
    0.8175,
    0.4075,
    0.8975,
    0.245
  ],
  "SoftwareVersions": "syngo_MR_E11",
  "SpacingBetweenSlices": 2.5,
  "StationName": "AWP66112",
  "TotalReadoutTime": 0.0522511,
  "TxRefAmp": 256.689,
  "time": {
    "samples": {
      "AcquisitionNumber": [
        1,
        2,
        3,
        4,
        5,
        6,
        7,
        8,
        9,
        10,
        11,
        12,
        13,
        14,
        15,
        16,
        17,
        18,
        19,
        20,
        21,
        22,
        23,
        24,
        25,
        26,
        27,
        28,
        29,
        30,
        31,
        32,
        33,
        34,
        35,
        36,
        37,
        38,
        39,
        40,
        41,
        42,
        43,
        44,
        45,
        46,
        47,
        48,
        49,
        50,
        51,
        52,
        53,
        54,
        55,
        56,
        57,
        58,
        59,
        60,
        61,
        62,
        63,
        64,
        65,
        66,
        67,
        68,
        69,
        70,
        71,
        72,
        73,
        74,
        75,
        76,
        77,
        78,
        79,
        80,
        81,
        82,
        83,
        84,
        85,
        86,
        87,
        88,
        89,
        90,
        91,
        92,
        93,
        94,
        95,
        96,
        97,
        98,
        99,
        100,
        101,
        102,
        103,
        104,
        105,
        106,
        107,
        108,
        109,
        110,
        111,
        112,
        113,
        114,
        115,
        116,
        117,
        118,
        119,
        120,
        121,
        122,
        123,
        124,
        125,
        126,
        127,
        128,
        129,
        130,
        131,
        132,
        133,
        134,
        135,
        136,
        137,
        138,
        139,
        140,
        141,
        142,
        143,
        144,
        145,
        146,
        147,
        148,
        149,
        150,
        151,
        152,
        153,
        154,
        155,
        156,
        157,
        158,
        159,
        160,
        161,
        162,
        163,
        164,
        165,
        166,
        167,
        168,
        169,
        170,
        171,
        172,
        173,
        174,
        175,
        176,
        177,
        178,
        179,
        180,
        181,
        182,
        183,
        184,
        185,
        186,
        187,
        188,
        189,
        190,
        191,
        192,
        193,
        194,
        195,
        196,
        197,
        198,
        199,
        200,
        201,
        202,
        203,
        204,
        205,
        206,
        207,
        208,
        209,
        210,
        211,
        212,
        213,
        214,
        215,
        216,
        217,
        218,
        219,
        220,
        221,
        222,
        223,
        224,
        225,
        226,
        227,
        228,
        229,
        230,
        231,
        232,
        233,
        234,
        235,
        236
      ],
      "AcquisitionTime": [
        "115733.360000",
        "115734.360000",
        "115735.360000",
        "115736.360000",
        "115737.360000",
        "115738.360000",
        "115739.360000",
        "115740.360000",
        "115741.360000",
        "115742.360000",
        "115743.360000",
        "115744.360000",
        "115745.360000",
        "115746.360000",
        "115747.360000",
        "115748.360000",
        "115749.360000",
        "115750.360000",
        "115751.360000",
        "115752.360000",
        "115753.360000",
        "115754.360000",
        "115755.360000",
        "115756.360000",
        "115757.360000",
        "115758.360000",
        "115759.360000",
        "115800.360000",
        "115801.360000",
        "115802.360000",
        "115803.360000",
        "115804.360000",
        "115805.360000",
        "115806.360000",
        "115807.360000",
        "115808.360000",
        "115809.360000",
        "115810.360000",
        "115811.360000",
        "115812.360000",
        "115813.360000",
        "115814.360000",
        "115815.360000",
        "115816.360000",
        "115817.360000",
        "115818.360000",
        "115819.360000",
        "115820.360000",
        "115821.360000",
        "115822.360000",
        "115823.360000",
        "115824.360000",
        "115825.360000",
        "115826.360000",
        "115827.360000",
        "115828.360000",
        "115829.360000",
        "115830.360000",
        "115831.360000",
        "115832.360000",
        "115833.360000",
        "115834.360000",
        "115835.360000",
        "115836.360000",
        "115837.360000",
        "115838.360000",
        "115839.360000",
        "115840.360000",
        "115841.360000",
        "115842.360000",
        "115843.360000",
        "115844.360000",
        "115845.360000",
        "115846.360000",
        "115847.360000",
        "115848.360000",
        "115849.360000",
        "115850.360000",
        "115851.360000",
        "115852.360000",
        "115853.360000",
        "115854.360000",
        "115855.360000",
        "115856.360000",
        "115857.360000",
        "115858.360000",
        "115859.360000",
        "115900.360000",
        "115901.360000",
        "115902.360000",
        "115903.360000",
        "115904.360000",
        "115905.360000",
        "115906.360000",
        "115907.360000",
        "115908.360000",
        "115909.360000",
        "115910.360000",
        "115911.360000",
        "115912.360000",
        "115913.360000",
        "115914.360000",
        "115915.360000",
        "115916.360000",
        "115917.360000",
        "115918.360000",
        "115919.360000",
        "115920.360000",
        "115921.360000",
        "115922.360000",
        "115923.360000",
        "115924.360000",
        "115925.360000",
        "115926.360000",
        "115927.360000",
        "115928.360000",
        "115929.360000",
        "115930.360000",
        "115931.360000",
        "115932.360000",
        "115933.360000",
        "115934.360000",
        "115935.360000",
        "115936.360000",
        "115937.360000",
        "115938.360000",
        "115939.360000",
        "115940.360000",
        "115941.360000",
        "115942.360000",
        "115943.360000",
        "115944.360000",
        "115945.360000",
        "115946.360000",
        "115947.360000",
        "115948.360000",
        "115949.360000",
        "115950.360000",
        "115951.360000",
        "115952.360000",
        "115953.360000",
        "115954.360000",
        "115955.360000",
        "115956.360000",
        "115957.360000",
        "115958.360000",
        "115959.360000",
        "120000.360000",
        "120001.360000",
        "120002.360000",
        "120003.360000",
        "120004.360000",
        "120005.360000",
        "120006.360000",
        "120007.360000",
        "120008.360000",
        "120009.360000",
        "120010.360000",
        "120011.360000",
        "120012.360000",
        "120013.360000",
        "120014.360000",
        "120015.360000",
        "120016.360000",
        "120017.360000",
        "120018.360000",
        "120019.360000",
        "120020.360000",
        "120021.360000",
        "120022.360000",
        "120023.360000",
        "120024.360000",
        "120025.360000",
        "120026.360000",
        "120027.360000",
        "120028.360000",
        "120029.360000",
        "120030.360000",
        "120031.360000",
        "120032.360000",
        "120033.360000",
        "120034.360000",
        "120035.360000",
        "120036.360000",
        "120037.360000",
        "120038.360000",
        "120039.360000",
        "120040.360000",
        "120041.360000",
        "120042.360000",
        "120043.360000",
        "120044.360000",
        "120045.360000",
        "120046.360000",
        "120047.360000",
        "120048.360000",
        "120049.360000",
        "120050.360000",
        "120051.360000",
        "120052.360000",
        "120053.360000",
        "120054.360000",
        "120055.360000",
        "120056.360000",
        "120057.360000",
        "120058.360000",
        "120059.360000",
        "120100.360000",
        "120101.360000",
        "120102.360000",
        "120103.360000",
        "120104.360000",
        "120105.360000",
        "120106.360000",
        "120107.360000",
        "120108.360000",
        "120109.360000",
        "120110.360000",
        "120111.360000",
        "120112.360000",
        "120113.360000",
        "120114.360000",
        "120115.360000",
        "120116.360000",
        "120117.360000",
        "120118.360000",
        "120119.360000",
        "120120.360000",
        "120121.360000",
        "120122.360000",
        "120123.360000",
        "120124.360000",
        "120125.360000",
        "120126.360000",
        "120127.360000",
        "120128.360000"
      ],
      "ContentTime": [
        "115734.270000",
        "115735.034000",
        "115736.034000",
        "115737.054000",
        "115738.036000",
        "115739.034000",
        "115740.022000",
        "115741.087000",
        "115742.016000",
        "115743.012000",
        "115744.008000",
        "115745.030000",
        "115746.061000",
        "115747.025000",
        "115748.016000",
        "115749.020000",
        "115750.018000",
        "115751.026000",
        "115752.028000",
        "115753.030000",
        "115754.039000",
        "115755.031000",
        "115756.021000",
        "115757.021000",
        "115758.024000",
        "115759.025000",
        "115800.084000",
        "115801.049000",
        "115802.040000",
        "115803.023000",
        "115804.021000",
        "115805.017000",
        "115806.036000",
        "115807.030000",
        "115808.028000",
        "115809.022000",
        "115810.021000",
        "115811.095000",
        "115812.029000",
        "115813.033000",
        "115814.016000",
        "115815.027000",
        "115816.052000",
        "115817.015000",
        "115818.028000",
        "115819.019000",
        "115820.033000",
        "115821.032000",
        "115822.070000",
        "115823.040000",
        "115824.061000",
        "115825.047000",
        "115826.041000",
        "115827.067000",
        "115828.040000",
        "115829.037000",
        "115830.087000",
        "115831.017000",
        "115832.023000",
        "115833.031000",
        "115833.997000",
        "115835.071000",
        "115836.025000",
        "115837.024000",
        "115838.016000",
        "115839.006000",
        "115840.055000",
        "115841.028000",
        "115842.042000",
        "115843.017000",
        "115844.022000",
        "115845.002000",
        "115846.006000",
        "115847.028000",
        "115848.024000",
        "115849.024000",
        "115850.016000",
        "115851.035000",
        "115852.021000",
        "115853.022000",
        "115854.032000",
        "115855.011000",
        "115856.019000",
        "115857.042000",
        "115858.033000",
        "115859.077000",
        "115900.057000",
        "115901.012000",
        "115902.012000",
        "115903.050000",
        "115904.021000",
        "115905.020000",
        "115906.079000",
        "115907.059000",
        "115908.017000",
        "115909.087000",
        "115910.031000",
        "115911.037000",
        "115912.037000",
        "115913.031000",
        "115914.017000",
        "115915.035000",
        "115916.036000",
        "115917.097000",
        "115918.039000",
        "115919.036000",
        "115920.030000",
        "115921.056000",
        "115922.074000",
        "115923.035000",
        "115924.050000",
        "115925.036000",
        "115926.133000",
        "115927.062000",
        "115928.091000",
        "115929.027000",
        "115930.025000",
        "115931.016000",
        "115932.042000",
        "115933.020000",
        "115934.032000",
        "115935.040000",
        "115936.094000",
        "115937.018000",
        "115938.045000",
        "115939.051000",
        "115940.046000",
        "115941.059000",
        "115942.075000",
        "115943.088000",
        "115944.033000",
        "115945.038000",
        "115946.054000",
        "115947.051000",
        "115948.020000",
        "115949.090000",
        "115950.072000",
        "115951.070000",
        "115952.023000",
        "115953.041000",
        "115954.033000",
        "115955.040000",
        "115956.044000",
        "115957.022000",
        "115958.081000",
        "115959.034000",
        "120000.012000",
        "120001.051000",
        "120002.049000",
        "120003.028000",
        "120004.026000",
        "120005.018000",
        "120006.040000",
        "120007.062000",
        "120008.050000",
        "120009.042000",
        "120010.021000",
        "120011.113000",
        "120012.114000",
        "120013.044000",
        "120014.052000",
        "120015.031000",
        "120016.049000",
        "120017.028000",
        "120018.012000",
        "120019.038000",
        "120020.047000",
        "120021.029000",
        "120022.015000",
        "120023.018000",
        "120024.031000",
        "120025.101000",
        "120026.038000",
        "120027.016000",
        "120028.016000",
        "120029.021000",
        "120030.016000",
        "120031.027000",
        "120032.014000",
        "120033.033000",
        "120034.042000",
        "120035.073000",
        "120036.023000",
        "120037.049000",
        "120038.041000",
        "120039.014000",
        "120040.044000",
        "120041.040000",
        "120042.012000",
        "120043.016000",
        "120044.032000",
        "120045.039000",
        "120046.075000",
        "120047.031000",
        "120048.072000",
        "120049.050000",
        "120050.028000",
        "120051.042000",
        "120052.065000",
        "120053.017000",
        "120054.029000",
        "120055.042000",
        "120056.046000",
        "120057.022000",
        "120058.057000",
        "120059.033000",
        "120100.024000",
        "120101.026000",
        "120102.034000",
        "120103.031000",
        "120104.039000",
        "120105.050000",
        "120106.035000",
        "120107.036000",
        "120108.034000",
        "120109.033000",
        "120110.010000",
        "120111.036000",
        "120112.019000",
        "120113.039000",
        "120114.048000",
        "120115.019000",
        "120116.040000",
        "120117.038000",
        "120118.048000",
        "120119.035000",
        "120120.027000",
        "120121.015000",
        "120122.014000",
        "120123.034000",
        "120124.030000",
        "120125.028000",
        "120126.039000",
        "120127.025000",
        "120128.063000",
        "120129.052000"
      ],
      "InstanceCreationTime": [
        "115734.270000",
        "115735.034000",
        "115736.034000",
        "115737.054000",
        "115738.036000",
        "115739.034000",
        "115740.022000",
        "115741.087000",
        "115742.016000",
        "115743.012000",
        "115744.008000",
        "115745.030000",
        "115746.061000",
        "115747.025000",
        "115748.016000",
        "115749.020000",
        "115750.018000",
        "115751.026000",
        "115752.028000",
        "115753.030000",
        "115754.039000",
        "115755.031000",
        "115756.021000",
        "115757.021000",
        "115758.024000",
        "115759.025000",
        "115800.084000",
        "115801.049000",
        "115802.040000",
        "115803.023000",
        "115804.021000",
        "115805.017000",
        "115806.036000",
        "115807.030000",
        "115808.028000",
        "115809.022000",
        "115810.021000",
        "115811.095000",
        "115812.029000",
        "115813.033000",
        "115814.016000",
        "115815.027000",
        "115816.052000",
        "115817.015000",
        "115818.028000",
        "115819.019000",
        "115820.033000",
        "115821.032000",
        "115822.070000",
        "115823.040000",
        "115824.061000",
        "115825.047000",
        "115826.041000",
        "115827.067000",
        "115828.040000",
        "115829.037000",
        "115830.087000",
        "115831.017000",
        "115832.023000",
        "115833.031000",
        "115833.997000",
        "115835.071000",
        "115836.025000",
        "115837.024000",
        "115838.016000",
        "115839.006000",
        "115840.055000",
        "115841.028000",
        "115842.042000",
        "115843.017000",
        "115844.022000",
        "115845.002000",
        "115846.006000",
        "115847.028000",
        "115848.024000",
        "115849.024000",
        "115850.016000",
        "115851.035000",
        "115852.021000",
        "115853.022000",
        "115854.032000",
        "115855.011000",
        "115856.019000",
        "115857.042000",
        "115858.033000",
        "115859.077000",
        "115900.057000",
        "115901.012000",
        "115902.012000",
        "115903.050000",
        "115904.021000",
        "115905.020000",
        "115906.079000",
        "115907.059000",
        "115908.017000",
        "115909.087000",
        "115910.031000",
        "115911.037000",
        "115912.037000",
        "115913.031000",
        "115914.017000",
        "115915.035000",
        "115916.036000",
        "115917.097000",
        "115918.039000",
        "115919.036000",
        "115920.030000",
        "115921.056000",
        "115922.074000",
        "115923.035000",
        "115924.050000",
        "115925.036000",
        "115926.133000",
        "115927.062000",
        "115928.091000",
        "115929.027000",
        "115930.025000",
        "115931.016000",
        "115932.042000",
        "115933.020000",
        "115934.032000",
        "115935.040000",
        "115936.094000",
        "115937.018000",
        "115938.045000",
        "115939.051000",
        "115940.046000",
        "115941.059000",
        "115942.075000",
        "115943.088000",
        "115944.033000",
        "115945.038000",
        "115946.054000",
        "115947.051000",
        "115948.020000",
        "115949.090000",
        "115950.072000",
        "115951.070000",
        "115952.023000",
        "115953.041000",
        "115954.033000",
        "115955.040000",
        "115956.044000",
        "115957.022000",
        "115958.081000",
        "115959.034000",
        "120000.012000",
        "120001.051000",
        "120002.049000",
        "120003.028000",
        "120004.026000",
        "120005.018000",
        "120006.040000",
        "120007.062000",
        "120008.050000",
        "120009.042000",
        "120010.021000",
        "120011.113000",
        "120012.114000",
        "120013.044000",
        "120014.052000",
        "120015.031000",
        "120016.049000",
        "120017.028000",
        "120018.012000",
        "120019.038000",
        "120020.047000",
        "120021.029000",
        "120022.015000",
        "120023.018000",
        "120024.031000",
        "120025.101000",
        "120026.038000",
        "120027.016000",
        "120028.016000",
        "120029.021000",
        "120030.016000",
        "120031.027000",
        "120032.014000",
        "120033.033000",
        "120034.042000",
        "120035.073000",
        "120036.023000",
        "120037.049000",
        "120038.041000",
        "120039.014000",
        "120040.044000",
        "120041.040000",
        "120042.012000",
        "120043.016000",
        "120044.032000",
        "120045.039000",
        "120046.075000",
        "120047.031000",
        "120048.072000",
        "120049.050000",
        "120050.028000",
        "120051.042000",
        "120052.065000",
        "120053.017000",
        "120054.029000",
        "120055.042000",
        "120056.046000",
        "120057.022000",
        "120058.057000",
        "120059.033000",
        "120100.024000",
        "120101.026000",
        "120102.034000",
        "120103.031000",
        "120104.039000",
        "120105.050000",
        "120106.035000",
        "120107.036000",
        "120108.034000",
        "120109.033000",
        "120110.010000",
        "120111.036000",
        "120112.019000",
        "120113.039000",
        "120114.048000",
        "120115.019000",
        "120116.040000",
        "120117.038000",
        "120118.048000",
        "120119.035000",
        "120120.027000",
        "120121.015000",
        "120122.014000",
        "120123.034000",
        "120124.030000",
        "120125.028000",
        "120126.039000",
        "120127.025000",
        "120128.063000",
        "120129.052000"
      ],
      "InstanceNumber": [
        1,
        2,
        3,
        4,
        5,
        6,
        7,
        8,
        9,
        10,
        11,
        12,
        13,
        14,
        15,
        16,
        17,
        18,
        19,
        20,
        21,
        22,
        23,
        24,
        25,
        26,
        27,
        28,
        29,
        30,
        31,
        32,
        33,
        34,
        35,
        36,
        37,
        38,
        39,
        40,
        41,
        42,
        43,
        44,
        45,
        46,
        47,
        48,
        49,
        50,
        51,
        52,
        53,
        54,
        55,
        56,
        57,
        58,
        59,
        60,
        61,
        62,
        63,
        64,
        65,
        66,
        67,
        68,
        69,
        70,
        71,
        72,
        73,
        74,
        75,
        76,
        77,
        78,
        79,
        80,
        81,
        82,
        83,
        84,
        85,
        86,
        87,
        88,
        89,
        90,
        91,
        92,
        93,
        94,
        95,
        96,
        97,
        98,
        99,
        100,
        101,
        102,
        103,
        104,
        105,
        106,
        107,
        108,
        109,
        110,
        111,
        112,
        113,
        114,
        115,
        116,
        117,
        118,
        119,
        120,
        121,
        122,
        123,
        124,
        125,
        126,
        127,
        128,
        129,
        130,
        131,
        132,
        133,
        134,
        135,
        136,
        137,
        138,
        139,
        140,
        141,
        142,
        143,
        144,
        145,
        146,
        147,
        148,
        149,
        150,
        151,
        152,
        153,
        154,
        155,
        156,
        157,
        158,
        159,
        160,
        161,
        162,
        163,
        164,
        165,
        166,
        167,
        168,
        169,
        170,
        171,
        172,
        173,
        174,
        175,
        176,
        177,
        178,
        179,
        180,
        181,
        182,
        183,
        184,
        185,
        186,
        187,
        188,
        189,
        190,
        191,
        192,
        193,
        194,
        195,
        196,
        197,
        198,
        199,
        200,
        201,
        202,
        203,
        204,
        205,
        206,
        207,
        208,
        209,
        210,
        211,
        212,
        213,
        214,
        215,
        216,
        217,
        218,
        219,
        220,
        221,
        222,
        223,
        224,
        225,
        226,
        227,
        228,
        229,
        230,
        231,
        232,
        233,
        234,
        235,
        236
      ],
      "LargestImagePixelValue": [
        1303,
        1162,
        813,
        826,
        727,
        726,
        725,
        706,
        802,
        865,
        712,
        715,
        811,
        821,
        717,
        764,
        1144,
        710,
        737,
        1127,
        703,
        720,
        744,
        719,
        704,
        701,
        739,
        917,
        727,
        980,
        706,
        771,
        818,
        726,
        721,
        810,
        802,
        718,
        736,
        789,
        798,
        725,
        769,
        778,
        918,
        788,
        716,
        743,
        921,
        748,
        730,
        751,
        742,
        787,
        748,
        801,
        1023,
        784,
        754,
        830,
        767,
        723,
        757,
        786,
        719,
        807,
        1130,
        832,
        720,
        861,
        800,
        762,
        769,
        825,
        706,
        716,
        809,
        829,
        731,
        757,
        1059,
        983,
        748,
        776,
        784,
        714,
        778,
        791,
        723,
        763,
        1142,
        701,
        741,
        671,
        745,
        724,
        669,
        721,
        764,
        1056,
        775,
        718,
        710,
        715,
        722,
        1034,
        809,
        782,
        731,
        705,
        753,
        752,
        727,
        795,
        726,
        900,
        738,
        716,
        834,
        989,
        745,
        702,
        786,
        979,
        793,
        701,
        829,
        728,
        735,
        788,
        713,
        713,
        977,
        766,
        719,
        799,
        716,
        713,
        879,
        773,
        724,
        835,
        729,
        733,
        908,
        1120,
        729,
        826,
        788,
        741,
        753,
        713,
        753,
        759,
        802,
        760,
        782,
        758,
        673,
        748,
        739,
        1079,
        907,
        787,
        815,
        793,
        792,
        728,
        673,
        741,
        828,
        1211,
        820,
        785,
        800,
        711,
        743,
        858,
        789,
        763,
        808,
        957,
        1033,
        748,
        739,
        773,
        727,
        729,
        739,
        880,
        778,
        746,
        862,
        678,
        728,
        754,
        816,
        734,
        790,
        1088,
        761,
        751,
        824,
        853,
        760,
        752,
        781,
        778,
        705,
        896,
        1239,
        732,
        760,
        787,
        680,
        744,
        757,
        776,
        755,
        755,
        1104,
        851,
        741,
        813,
        674,
        765,
        734,
        746,
        824,
        811,
        835,
        748,
        779,
        923,
        824,
        763
      ],
      "WindowCenter": [
        355,
        353,
        350,
        351,
        350,
        350,
        351,
        350,
        351,
        351,
        350,
        350,
        351,
        351,
        350,
        351,
        353,
        350,
        350,
        352,
        349,
        350,
        351,
        351,
        351,
        352,
        351,
        352,
        350,
