{
  "AcquisitionMatrixPE": 96,
  "AcquisitionNumber": 1,
  "BandwidthPerPixelPhaseEncode": 18.939,
  "BaseResolution": 96,
  "BodyPartExamined": "BRAIN",
  "ConsistencyInfo": "N4_VE11C_LATEST_20160120",
  "ConversionSoftware": "dcm2niix",
  "ConversionSoftwareVersion": "v1.0.20171215 (OpenJPEG build) GCC6.3.0",
  "DerivedVendorReportedEchoSpacing": 0.000550011,
  "DeviceSerialNumber": "66112",
  "DwellTime": 2.2e-06,
  "EchoTime": 0.033,
  "EchoTrainLength": 96,
  "EffectiveEchoSpacing": 0.000550011,
  "FlipAngle": 59,
  "ImageOrientationPatientDICOM": [
    0.999397,
    0.0345878,
    0.00305282,
    -0.0343758,
    0.997982,
    -0.0533818
  ],
  "ImageType": [
    "ORIGINAL",
    "PRIMARY",
    "FMRI",
    "NONE",
    "ND",
    "NORM",
    "MOSAIC"
  ],
  "InPlanePhaseEncodingDirectionDICOM": "COL",
  "InstitutionAddress": "Maynard_3_Hanover_NH_US_03755",
  "InstitutionName": "Dartmouth_College_-_PBS",
  "InstitutionalDepartmentName": "Department",
  "MRAcquisitionType": "2D",
  "MagneticFieldStrength": 3,
  "Manufacturer": "Siemens",
  "ManufacturersModelName": "Prisma",
  "Modality": "MR",
  "MultibandAccelerationFactor": 4,
  "PatientPosition": "HFS",
  "PercentPhaseFOV": 100,
  "PhaseEncodingDirection": "j-",
  "PhaseEncodingSteps": 96,
  "PhaseResolution": 1,
  "PixelBandwidth": 2365,
  "ProcedureStepDescription": "Gobbini_Matteo_1038_hyperface",
  "ProtocolName": "func_run-07_task-visualmemory",
  "PulseSequenceDetails": "%SiemensSeq%_ep2d_bold",
  "ReceiveCoilActiveElements": "HEA;HEP",
  "ReceiveCoilName": "Head_32",
  "ReconMatrixPE": 96,
  "RepetitionTime": 1,
  "SAR": 0.0525261,
  "ScanOptions": "FS",
  "ScanningSequence": "EP",
  "SequenceName": "_epfid2d1_96",
  "SequenceVariant": "SK",
  "SeriesDescription": "func_run-07_task-visualmemory",
  "SeriesNumber": 49,
  "ShimSetting": [
    4157,
    -7725,
    -7282,
    707,
    -37,
    -75,
    38,
    108
  ],
  "SliceThickness": 2.5,
  "SliceTiming": [
    0.735,
    0,
    0.49,
    0.08,
    0.57,
    0.1625,
    0.6525,
    0.325,
    0.815,
    0.4075,
    0.8975,
    0.245,
    0.735,
    0,
    0.49,
    0.08,
    0.57,
    0.1625,
    0.6525,
    0.325,
    0.815,
    0.4075,
    0.8975,
    0.245,
    0.735,
    0,
    0.49,
    0.08,
    0.57,
    0.1625,
    0.6525,
    0.325,
    0.815,
    0.4075,
    0.8975,
    0.245,
    0.735,
    0,
    0.49,
    0.08,
    0.57,
    0.1625,
    0.6525,
    0.325,
    0.815,
    0.4075,
    0.8975,
    0.245
  ],
  "SoftwareVersions": "syngo_MR_E11",
  "SpacingBetweenSlices": 2.5,
  "StationName": "AWP66112",
  "TotalReadoutTime": 0.0522511,
  "TxRefAmp": 235.631,
  "time": {
    "samples": {
      "AcquisitionNumber": [
        1,
        2,
        3,
        4,
        5,
        6,
        7,
        8,
        9,
        10,
        11,
        12,
        13,
        14,
        15,
        16,
        17,
        18,
        19,
        20,
        21,
        22,
        23,
        24,
        25,
        26,
        27,
        28,
        29,
        30,
        31,
        32,
        33,
        34,
        35,
        36,
        37,
        38,
        39,
        40,
        41,
        42,
        43,
        44,
        45,
        46,
        47,
        48,
        49,
        50,
        51,
        52,
        53,
        54,
        55,
        56,
        57,
        58,
        59,
        60,
        61,
        62,
        63,
        64,
        65,
        66,
        67,
        68,
        69,
        70,
        71,
        72,
        73,
        74,
        75,
        76,
        77,
        78,
        79,
        80,
        81,
        82,
        83,
        84,
        85,
        86,
        87,
        88,
        89,
        90,
        91,
        92,
        93,
        94,
        95,
        96,
        97,
        98,
        99,
        100,
        101,
        102,
        103,
        104,
        105,
        106,
        107,
        108,
        109,
        110,
        111,
        112,
        113,
        114,
        115,
        116,
        117,
        118,
        119,
        120,
        121,
        122,
        123,
        124,
        125,
        126,
        127,
        128,
        129,
        130,
        131,
        132,
        133,
        134,
        135,
        136,
        137,
        138,
        139,
        140,
        141,
        142,
        143,
        144,
        145,
        146,
        147,
        148,
        149,
        150,
        151,
        152,
        153,
        154,
        155,
        156,
        157,
        158,
        159,
        160,
        161,
        162,
        163,
        164,
        165,
        166,
        167,
        168,
        169,
        170,
        171,
        172,
        173,
        174,
        175,
        176,
        177,
        178,
        179,
        180,
        181,
        182,
        183,
        184,
        185,
        186,
        187,
        188,
        189,
        190,
        191,
        192,
        193,
        194,
        195,
        196,
        197,
        198,
        199,
        200,
        201,
        202,
        203,
        204,
        205,
        206,
        207,
        208,
        209,
        210,
        211,
        212,
        213,
        214,
        215,
        216,
        217,
        218,
        219,
        220,
        221,
        222,
        223,
        224,
        225,
        226,
        227,
        228,
        229,
        230,
        231,
        232,
        233,
        234,
        235,
        236,
        237,
        238,
        239,
        240,
        241,
        242,
        243,
        244,
        245,
        246,
        247,
        248,
        249,
        250,
        251,
        252,
        253,
        254,
        255,
        256,
        257,
        258,
        259,
        260,
        261,
        262,
        263,
        264,
        265,
        266,
        267,
        268,
        269,
        270,
        271,
        272,
        273,
        274,
        275,
        276,
        277,
        278,
        279,
        280,
        281,
        282,
        283,
        284,
        285,
        286,
        287,
        288
      ],
      "AcquisitionTime": [
        "114006.992500",
        "114007.992500",
        "114008.992500",
        "114009.992500",
        "114010.992500",
        "114011.992500",
        "114012.992500",
        "114013.992500",
        "114014.992500",
        "114015.992500",
        "114016.992500",
        "114017.992500",
        "114018.992500",
        "114019.992500",
        "114020.992500",
        "114021.992500",
        "114022.992500",
        "114023.992500",
        "114024.992500",
        "114025.992500",
        "114026.992500",
        "114027.992500",
        "114028.992500",
        "114029.992500",
        "114030.992500",
        "114031.992500",
        "114032.992500",
        "114033.992500",
        "114034.992500",
        "114035.992500",
        "114036.992500",
        "114037.992500",
        "114038.992500",
        "114039.992500",
        "114040.992500",
        "114041.992500",
        "114042.992500",
        "114043.992500",
        "114044.992500",
        "114045.992500",
        "114046.992500",
        "114047.992500",
        "114048.992500",
        "114049.992500",
        "114050.992500",
        "114051.992500",
        "114052.992500",
        "114053.992500",
        "114054.992500",
        "114055.992500",
        "114056.992500",
        "114057.992500",
        "114058.992500",
        "114059.992500",
        "114100.992500",
        "114101.992500",
        "114102.992500",
        "114103.992500",
        "114104.992500",
        "114105.992500",
        "114106.992500",
        "114107.992500",
        "114108.992500",
        "114109.992500",
        "114110.992500",
        "114111.992500",
        "114112.992500",
        "114113.992500",
        "114114.992500",
        "114115.992500",
        "114116.992500",
        "114117.992500",
        "114118.992500",
        "114119.992500",
        "114120.992500",
        "114121.992500",
        "114122.992500",
        "114123.992500",
        "114124.992500",
        "114125.992500",
        "114126.992500",
        "114127.992500",
        "114128.992500",
        "114129.992500",
        "114130.992500",
        "114131.992500",
        "114132.992500",
        "114133.992500",
        "114134.992500",
        "114135.992500",
        "114136.992500",
        "114137.992500",
        "114138.992500",
        "114139.992500",
        "114140.992500",
        "114141.992500",
        "114142.992500",
        "114143.992500",
        "114144.992500",
        "114145.992500",
        "114146.992500",
        "114147.992500",
        "114148.992500",
        "114149.992500",
        "114150.992500",
        "114151.992500",
        "114152.992500",
        "114153.992500",
        "114154.992500",
        "114155.992500",
        "114156.992500",
        "114157.992500",
        "114158.992500",
        "114159.992500",
        "114200.992500",
        "114201.992500",
        "114202.992500",
        "114203.992500",
        "114204.992500",
        "114205.992500",
        "114206.992500",
        "114207.992500",
        "114208.992500",
        "114209.992500",
        "114210.992500",
        "114211.992500",
        "114212.992500",
        "114213.992500",
        "114214.992500",
        "114215.992500",
        "114216.992500",
        "114217.992500",
        "114218.992500",
        "114219.992500",
        "114220.992500",
        "114221.992500",
        "114222.992500",
        "114223.992500",
        "114224.992500",
        "114225.992500",
        "114226.992500",
        "114227.992500",
        "114228.992500",
        "114229.992500",
        "114230.992500",
        "114231.992500",
        "114232.992500",
        "114233.992500",
        "114234.992500",
        "114235.992500",
        "114236.992500",
        "114237.992500",
        "114238.992500",
        "114239.992500",
        "114240.992500",
        "114241.992500",
        "114242.992500",
        "114243.992500",
        "114244.992500",
        "114245.992500",
        "114246.992500",
        "114247.992500",
        "114248.992500",
        "114249.992500",
        "114250.992500",
        "114251.992500",
        "114252.992500",
        "114253.992500",
        "114254.992500",
        "114255.992500",
        "114256.992500",
        "114257.992500",
        "114258.992500",
        "114259.992500",
        "114300.992500",
        "114301.992500",
        "114302.992500",
        "114303.992500",
        "114304.992500",
        "114305.992500",
        "114306.992500",
        "114307.992500",
        "114308.992500",
        "114309.992500",
        "114310.992500",
        "114311.992500",
        "114312.992500",
        "114313.992500",
        "114314.992500",
        "114315.992500",
        "114316.992500",
        "114317.992500",
        "114318.992500",
        "114319.992500",
        "114320.992500",
        "114321.992500",
        "114322.992500",
        "114323.992500",
        "114324.992500",
        "114325.992500",
        "114326.992500",
        "114327.992500",
        "114328.992500",
        "114329.992500",
        "114330.992500",
        "114331.992500",
        "114332.992500",
        "114333.992500",
        "114334.992500",
        "114335.992500",
        "114336.992500",
        "114337.992500",
        "114338.992500",
        "114339.992500",
        "114340.992500",
        "114341.992500",
        "114342.992500",
        "114343.992500",
        "114344.992500",
        "114345.992500",
        "114346.992500",
        "114347.992500",
        "114348.992500",
        "114349.992500",
        "114350.992500",
        "114351.992500",
        "114352.992500",
        "114353.992500",
        "114354.992500",
        "114355.992500",
        "114356.992500",
        "114357.992500",
        "114358.992500",
        "114359.992500",
        "114400.992500",
        "114401.992500",
        "114402.992500",
        "114403.992500",
        "114404.992500",
        "114405.992500",
        "114406.992500",
        "114407.992500",
        "114408.992500",
        "114409.992500",
        "114410.992500",
        "114411.992500",
        "114412.992500",
        "114413.992500",
        "114414.992500",
        "114415.992500",
        "114416.992500",
        "114417.992500",
        "114418.992500",
        "114419.992500",
        "114420.992500",
        "114421.992500",
        "114422.992500",
        "114423.992500",
        "114424.992500",
        "114425.992500",
        "114426.992500",
        "114427.992500",
        "114428.992500",
        "114429.992500",
        "114430.992500",
        "114431.992500",
        "114432.992500",
        "114433.992500",
        "114434.992500",
        "114435.992500",
        "114436.992500",
        "114437.992500",
        "114438.992500",
        "114439.992500",
        "114440.992500",
        "114441.992500",
        "114442.992500",
        "114443.992500",
        "114444.992500",
        "114445.992500",
        "114446.992500",
        "114447.992500",
        "114448.992500",
        "114449.992500",
        "114450.992500",
        "114451.992500",
        "114452.992500",
        "114453.992500"
      ],
      "ContentTime": [
        "114008.017000",
        "114008.907000",
        "114009.916000",
        "114010.912000",
        "114011.849000",
        "114012.909000",
        "114013.857000",
        "114014.861000",
        "114015.869000",
        "114016.890000",
        "114017.864000",
        "114018.873000",
        "114019.865000",
        "114020.863000",
        "114021.865000",
        "114022.879000",
        "114023.923000",
        "114024.865000",
        "114025.867000",
        "114026.860000",
        "114027.870000",
        "114028.903000",
        "114029.876000",
        "114030.865000",
        "114031.859000",
        "114032.857000",
        "114033.859000",
        "114034.851000",
        "114035.863000",
        "114036.919000",
        "114037.850000",
        "114038.875000",
        "114039.864000",
        "114040.868000",
        "114041.858000",
        "114042.880000",
        "114043.892000",
        "114044.856000",
        "114045.859000",
        "114046.866000",
        "114047.864000",
        "114048.876000",
        "114049.884000",
        "114050.848000",
        "114051.876000",
        "114052.862000",
        "114053.871000",
        "114054.862000",
        "114055.864000",
        "114056.879000",
        "114057.852000",
        "114058.889000",
        "114059.850000",
        "114100.872000",
        "114101.868000",
        "114102.869000",
        "114103.898000",
        "114104.867000",
        "114105.878000",
        "114106.907000",
        "114107.878000",
        "114108.878000",
        "114109.870000",
        "114110.871000",
        "114111.861000",
        "114112.861000",
        "114113.897000",
        "114114.931000",
        "114115.874000",
        "114116.875000",
        "114117.873000",
        "114118.875000",
        "114119.893000",
        "114120.856000",
        "114121.884000",
        "114122.865000",
        "114123.868000",
        "114124.883000",
        "114125.869000",
        "114126.870000",
        "114127.916000",
        "114128.852000",
        "114129.861000",
        "114130.905000",
        "114131.871000",
        "114132.853000",
        "114133.874000",
        "114134.859000",
        "114135.852000",
        "114136.896000",
        "114137.852000",
        "114138.861000",
        "114139.911000",
        "114140.848000",
        "114141.852000",
        "114142.843000",
        "114143.856000",
        "114144.867000",
        "114145.849000",
        "114146.869000",
        "114147.873000",
        "114148.887000",
        "114149.870000",
        "114150.871000",
        "114151.866000",
        "114152.867000",
        "114153.890000",
        "114154.898000",
        "114155.872000",
        "114156.883000",
        "114157.857000",
        "114158.875000",
        "114159.881000",
        "114200.879000",
        "114201.862000",
        "114202.908000",
        "114203.882000",
        "114204.888000",
        "114205.863000",
        "114206.867000",
        "114207.894000",
        "114208.875000",
        "114209.875000",
        "114210.874000",
        "114211.916000",
        "114212.879000",
        "114213.877000",
        "114214.863000",
        "114215.869000",
        "114216.906000",
        "114217.890000",
        "114218.880000",
        "114219.917000",
        "114220.882000",
        "114221.884000",
        "114222.916000",
        "114223.900000",
        "114224.861000",
        "114225.890000",
        "114226.878000",
        "114227.860000",
        "114228.906000",
        "114229.882000",
        "114230.892000",
        "114231.980000",
        "114232.882000",
        "114233.857000",
        "114234.872000",
        "114235.922000",
        "114236.928000",
        "114237.905000",
        "114238.885000",
        "114239.883000",
        "114240.865000",
        "114241.883000",
        "114242.860000",
        "114243.863000",
        "114244.875000",
        "114245.862000",
        "114246.953000",
        "114247.891000",
        "114248.908000",
        "114249.864000",
        "114250.861000",
        "114251.859000",
        "114252.860000",
        "114253.872000",
        "114254.868000",
        "114255.875000",
        "114256.883000",
        "114257.919000",
        "114258.880000",
        "114259.858000",
        "114300.857000",
        "114301.867000",
        "114302.884000",
        "114303.891000",
        "114304.868000",
        "114305.847000",
        "114306.882000",
        "114307.861000",
        "114308.877000",
        "114309.859000",
        "114310.855000",
        "114311.844000",
        "114312.885000",
        "114313.857000",
        "114314.873000",
        "114315.874000",
        "114316.879000",
        "114317.860000",
        "114318.889000",
        "114319.881000",
        "114320.872000",
        "114321.879000",
        "114322.903000",
        "114323.863000",
        "114324.873000",
        "114325.908000",
        "114326.857000",
        "114327.888000",
        "114328.919000",
        "114329.870000",
        "114330.877000",
        "114331.857000",
        "114332.861000",
        "114333.929000",
        "114334.891000",
        "114335.937000",
        "114336.859000",
        "114337.872000",
        "114338.841000",
        "114339.876000",
        "114340.873000",
        "114341.855000",
        "114342.905000",
        "114343.891000",
        "114344.891000",
        "114345.875000",
        "114346.863000",
        "114347.874000",
        "114348.881000",
        "114349.867000",
        "114350.878000",
        "114351.869000",
        "114352.858000",
        "114353.880000",
        "114354.875000",
        "114355.903000",
        "114356.857000",
        "114357.879000",
        "114358.873000",
        "114359.880000",
        "114400.911000",
        "114401.913000",
        "114402.878000",
        "114403.870000",
        "114404.891000",
        "114405.937000",
        "114406.864000",
        "114407.884000",
        "114408.875000",
        "114409.861000",
        "114410.876000",
        "114411.838000",
        "114412.900000",
        "114413.867000",
        "114414.857000",
        "114415.899000",
        "114416.856000",
        "114417.879000",
        "114418.876000",
        "114419.869000",
        "114420.867000",
        "114421.860000",
        "114422.897000",
        "114423.871000",
        "114424.868000",
        "114425.865000",
        "114426.884000",
        "114427.864000",
        "114428.862000",
        "114429.860000",
        "114430.873000",
        "114431.867000",
        "114432.880000",
        "114433.864000",
        "114434.892000",
        "114435.906000",
        "114436.861000",
        "114437.890000",
        "114438.856000",
        "114439.880000",
        "114440.850000",
        "114441.868000",
        "114442.853000",
        "114443.864000",
        "114444.927000",
        "114445.872000",
        "114446.868000",
        "114447.869000",
        "114448.874000",
        "114449.850000",
        "114450.879000",
        "114451.876000",
        "114452.913000",
        "114453.885000",
        "114454.902000"
      ],
      "InstanceCreationTime": [
        "114008.017000",
        "114008.907000",
        "114009.916000",
        "114010.912000",
        "114011.849000",
        "114012.909000",
        "114013.857000",
        "114014.861000",
        "114015.869000",
        "114016.890000",
        "114017.864000",
        "114018.873000",
        "114019.865000",
        "114020.863000",
        "114021.865000",
        "114022.879000",
        "114023.923000",
        "114024.865000",
        "114025.867000",
        "114026.860000",
        "114027.870000",
        "114028.903000",
        "114029.876000",
        "114030.865000",
        "114031.859000",
        "114032.857000",
        "114033.859000",
        "114034.851000",
        "114035.863000",
        "114036.919000",
        "114037.850000",
        "114038.875000",
        "114039.864000",
        "114040.868000",
        "114041.858000",
        "114042.880000",
        "114043.892000",
        "114044.856000",
        "114045.859000",
        "114046.866000",
        "114047.864000",
        "114048.876000",
        "114049.884000",
        "114050.848000",
        "114051.876000",
        "114052.862000",
        "114053.871000",
        "114054.862000",
        "114055.864000",
        "114056.879000",
        "114057.852000",
        "114058.889000",
        "114059.850000",
        "114100.872000",
        "114101.868000",
        "114102.869000",
        "114103.898000",
        "114104.867000",
        "114105.878000",
        "114106.907000",
        "114107.878000",
        "114108.878000",
        "114109.870000",
        "114110.871000",
        "114111.861000",
        "114112.861000",
        "114113.897000",
        "114114.931000",
        "114115.874000",
        "114116.875000",
        "114117.873000",
        "114118.875000",
        "114119.893000",
        "114120.856000",
        "114121.884000",
        "114122.865000",
        "114123.868000",
        "114124.883000",
        "114125.869000",
        "114126.870000",
        "114127.916000",
        "114128.852000",
        "114129.861000",
        "114130.905000",
        "114131.871000",
        "114132.853000",
        "114133.874000",
        "114134.859000",
        "114135.852000",
        "114136.896000",
        "114137.852000",
        "114138.861000",
        "114139.911000",
        "114140.848000",
        "114141.852000",
        "114142.843000",
        "114143.856000",
        "114144.867000",
        "114145.849000",
        "114146.869000",
        "114147.873000",
        "114148.887000",
        "114149.870000",
        "114150.871000",
        "114151.866000",
        "114152.867000",
        "114153.890000",
        "114154.898000",
        "114155.872000",
        "114156.883000",
        "114157.857000",
        "114158.875000",
        "114159.881000",
        "114200.879000",
        "114201.862000",
        "114202.908000",
        "114203.882000",
        "114204.888000",
        "114205.863000",
        "114206.867000",
        "114207.894000",
        "114208.875000",
        "114209.875000",
        "114210.874000",
        "114211.916000",
        "114212.879000",
        "114213.877000",
        "114214.863000",
        "114215.869000",
        "114216.906000",
        "114217.890000",
        "114218.880000",
        "114219.917000",
        "114220.882000",
        "114221.884000",
        "114222.916000",
        "114223.900000",
        "114224.861000",
        "114225.890000",
        "114226.878000",
        "114227.860000",
        "114228.906000",
        "114229.882000",
        "114230.892000",
        "114231.980000",
        "114232.882000",
        "114233.857000",
        "114234.872000",
        "114235.922000",
        "114236.928000",
        "114237.905000",
        "114238.885000",
        "114239.883000",
        "114240.865000",
        "114241.883000",
        "114242.860000",
        "114243.863000",
        "114244.875000",
        "114245.862000",
        "114246.953000",
        "114247.891000",
        "114248.908000",
        "114249.864000",
        "114250.861000",
        "114251.859000",
        "114252.860000",
        "114253.872000",
        "114254.868000",
        "114255.875000",
        "114256.883000",
        "114257.919000",
        "114258.880000",
        "114259.858000",
        "114300.857000",
        "114301.867000",
        "114302.884000",
        "114303.891000",
        "114304.868000",
        "114305.847000",
        "114306.882000",
        "114307.861000",
        "114308.877000",
        "114309.859000",
        "114310.855000",
        "114311.844000",
        "114312.885000",
        "114313.857000",
        "114314.873000",
        "114315.874000",
        "114316.879000",
        "114317.860000",
        "114318.889000",
        "114319.881000",
        "114320.872000",
        "114321.879000",
        "114322.903000",
        "114323.863000",
        "114324.873000",
        "114325.908000",
        "114326.857000",
        "114327.888000",
        "114328.919000",
        "114329.870000",
        "114330.877000",
        "114331.857000",
        "114332.861000",
        "114333.929000",
        "114334.891000",
        "114335.937000",
        "114336.859000",
        "114337.872000",
        "114338.841000",
        "114339.876000",
        "114340.873000",
        "114341.855000",
        "114342.905000",
        "114343.891000",
        "114344.891000",
        "114345.875000",
        "114346.863000",
        "114347.874000",
        "114348.881000",
        "114349.867000",
        "114350.878000",
        "114351.869000",
        "114352.858000",
        "114353.880000",
        "114354.875000",
        "114355.903000",
        "114356.857000",
        "114357.879000",
        "114358.873000",
        "114359.880000",
        "114400.911000",
        "114401.913000",
        "114402.878000",
        "114403.870000",
        "114404.891000",
        "114405.937000",
        "114406.864000",
        "114407.884000",
        "114408.875000",
        "114409.861000",
        "114410.876000",
        "114411.838000",
        "114412.900000",
        "114413.867000",
        "114414.857000",
        "114415.899000",
        "114416.856000",
        "114417.879000",
        "114418.876000",
        "114419.869000",
        "114420.867000",
        "114421.860000",
        "114422.897000",
        "114423.871000",
        "114424.868000",
        "114425.865000",
        "114426.884000",
        "114427.864000",
        "114428.862000",
        "114429.860000",
        "114430.873000",
        "114431.867000",
        "114432.880000",
        "114433.864000",
        "114434.892000",
        "114435.906000",
        "114436.861000",
        "114437.890000",
        "114438.856000",
        "114439.880000",
        "114440.850000",
        "114441.868000",
        "114442.853000",
        "114443.864000",
        "114444.927000",
        "114445.872000",
        "114446.868000",
        "114447.869000",
        "114448.874000",
        "114449.850000",
        "114450.879000",
        "114451.876000",
        "114452.913000",
        "114453.885000",
        "114454.902000"
      ],
      "InstanceNumber": [
        1,
        2,
        3,
        4,
        5,
        6,
        7,
        8,
        9,
        10,
        11,
        12,
        13,
        14,
        15,
        16,
        17,
        18,
        19,
        20,
        21,
        22,
        23,
        24,
        25,
        26,
        27,
        28,
        29,
        30,
        31,
        32,
        33,
        34,
        35,
        36,
        37,
        38,
        39,
        40,
        41,
        42,
        43,
        44,
        45,
        46,
        47,
        48,
        49,
        50,
        51,
        52,
        53,
        54,
        55,
        56,
        57,
        58,
        59,
        60,
        61,
        62,
        63,
        64,
        65,
        66,
        67,
        68,
        69,
        70,
        71,
        72,
        73,
        74,
        75,
        76,
        77,
        78,
        79,
        80,
        81,
        82,
        83,
        84,
        85,
        86,
        87,
        88,
        89,
        90,
        91,
        92,
        93,
        94,
        95,
        96,
        97,
        98,
        99,
        100,
        101,
        102,
        103,
        104,
        105,
        106,
        107,
        108,
        109,
        110,
        111,
        112,
        113,
        114,
        115,
        116,
        117,
        118,
        119,
        120,
        121,
        122,
        123,
        124,
        125,
        126,
        127,
        128,
        129,
        130,
        131,
        132,
        133,
        134,
        135,
        136,
        137,
        138,
        139,
        140,
        141,
        142,
        143,
        144,
        145,
        146,
        147,
        148,
        149,
        150,
        151,
        152,
        153,
        154,
        155,
        156,
        157,
